Time(s)	Current(A)
1.03000e-05	-0.002223433522501817
1.03003e-05	-0.0022531024121435956
1.03005e-05	-0.0022803630388098435
1.03008e-05	-0.002306431406878214
1.03010e-05	-0.002328369951886566
1.03013e-05	-0.002350308496895066
1.03015e-05	-0.0023710582171050693
1.03018e-05	-0.0023876900084730834
1.03020e-05	-0.0024043217998412103
1.03023e-05	-0.002419201216478555
1.03025e-05	-0.0024280106432779235
1.03028e-05	-0.002436820070077352
1.03030e-05	-0.0024456294968767806
1.03032e-05	-0.0024544389236761496
1.03035e-05	-0.0024613502226984952
1.03038e-05	-0.002461686662978576
1.03040e-05	-0.0024620231032586545
1.03043e-05	-0.002462359543538735
1.03045e-05	-0.0024626959838188163
1.03047e-05	-0.002461684097147684
1.03050e-05	-0.002456001787679084
1.03053e-05	-0.002450319478210484
1.03055e-05	-0.0024438944596769014
1.03058e-05	-0.002434896797063112
1.03060e-05	-0.002425899134449323
1.03063e-05	-0.002416267531624641
1.03065e-05	-0.0024044400453679627
1.03068e-05	-0.0023926125591112045
1.03070e-05	-0.002380352049024376
1.03073e-05	-0.0023665916027640964
1.03075e-05	-0.0023528311565037237
1.03078e-05	-0.0023388752531688507
1.03080e-05	-0.0023242423128765916
1.03083e-05	-0.0023096093725842332
1.03085e-05	-0.0022949491009877383
1.03088e-05	-0.002280194157438205
1.03090e-05	-0.002265439213888572
1.03093e-05	-0.0022509156301761756
1.03095e-05	-0.0022371934457516697
1.03098e-05	-0.0022234712613270705
1.03100e-05	-0.002210111234068587
1.03103e-05	-0.002198005670413173
1.03105e-05	-0.0021863143272763453
1.03108e-05	-0.002176057788177427
1.03110e-05	-0.0021665819907310934
1.03113e-05	-0.0021598105771216854
1.03115e-05	-0.002154080152382339
1.03117e-05	-0.002151955572759005
1.03120e-05	-0.002151084112566623
1.03123e-05	-0.0021545532891570733
1.03125e-05	-0.0021580224657475004
1.03128e-05	-0.0021630469882700353
1.03130e-05	-0.002173459019433807
1.03132e-05	-0.0021838710505975084
1.03135e-05	-0.0021959885933891306
1.03138e-05	-0.002214013798549352
1.03140e-05	-0.002232039003709451
1.03143e-05	-0.002251313199048215
1.03145e-05	-0.002274913727996224
1.03148e-05	-0.0022991786319182775
1.03150e-05	-0.0023261934083948768
1.03153e-05	-0.002355211623745604
1.03155e-05	-0.0023862041076015846
1.03158e-05	-0.002419010097502709
1.03160e-05	-0.0024534216756846475
1.03163e-05	-0.0024892308200644415
1.03165e-05	-0.002526229303692698
1.03168e-05	-0.002564220029908185
1.03170e-05	-0.0026030596865417475
1.03173e-05	-0.002642658014812449
1.03175e-05	-0.002682881870831164
1.03178e-05	-0.0027235155334114653
1.03180e-05	-0.0027643138318853085
1.03183e-05	-0.002805031543426504
1.03185e-05	-0.0028454233688543183
1.03188e-05	-0.0028852509945214845
1.03190e-05	-0.0029243097446735172
1.03193e-05	-0.0029624281736413682
1.03195e-05	-0.0029994081897082216
1.03198e-05	-0.003034999767652406
1.03200e-05	-0.003068934453741536
1.03202e-05	-0.0031006749668740564
1.03205e-05	-0.003129828623088532
1.03208e-05	-0.0031579596243137675
1.03210e-05	-0.003182548286513277
1.03213e-05	-0.0032064400526167183
1.03215e-05	-0.003227917864586535
1.03217e-05	-0.003248510651721897
1.03220e-05	-0.0032660378321353024
1.03223e-05	-0.0032835650125487073
1.03225e-05	-0.003300047648588691
1.03228e-05	-0.0033129121237271764
1.03230e-05	-0.003324932118943096
1.03232e-05	-0.0033340269495454413
1.03235e-05	-0.0033431217801478488
1.03238e-05	-0.003351372278611485
1.03240e-05	-0.0033566981243646384
1.03243e-05	-0.0033620239701177552
1.03245e-05	-0.0033664510993051313
1.03248e-05	-0.00336776519545792
1.03250e-05	-0.003369079291610699
1.03253e-05	-0.0033697485984856717
1.03255e-05	-0.003368184442221601
1.03258e-05	-0.003366620285957542
1.03260e-05	-0.0033645116247427477
1.03263e-05	-0.0033605168717793636
1.03265e-05	-0.0033565221188160068
1.03268e-05	-0.003352062611978257
1.03270e-05	-0.0033459932603697026
1.03273e-05	-0.0033399239087611894
1.03275e-05	-0.0033336224670898343
1.03278e-05	-0.0033265170967272345
1.03280e-05	-0.0033194117263646832
1.03283e-05	-0.003312159615412528
1.03285e-05	-0.003304399214839115
1.03287e-05	-0.0032966388142657553
1.03290e-05	-0.0032888947394522465
1.03293e-05	-0.0032812072148702977
1.03295e-05	-0.003273519690288401
1.03298e-05	-0.003266029952548476
1.03300e-05	-0.0032592253217672623
1.03302e-05	-0.003252420690986095
1.03305e-05	-0.0032458379531875867
1.03308e-05	-0.003240023822769584
1.03310e-05	-0.0032341112422819224
1.03313e-05	-0.003227857644024023
1.03315e-05	-0.003221604045766124
1.03317e-05	-0.0032149759356192974
1.03320e-05	-0.003207050566773835
1.03323e-05	-0.0031991251979283718
1.03325e-05	-0.003191199829082909
1.03328e-05	-0.0031832744602375003
1.03330e-05	-0.0031747900306095234
1.03333e-05	-0.0031643690897931206
1.03335e-05	-0.003153948148976789
1.03338e-05	-0.0031435272081603866
1.03340e-05	-0.0031331062673439843
1.03343e-05	-0.0031220448542747426
1.03345e-05	-0.003108764931657764
1.03348e-05	-0.0030954850090407853
1.03350e-05	-0.003082205086423897
1.03353e-05	-0.0030689251638069182
1.03355e-05	-0.00305564524118994
1.03358e-05	-0.0030418661658533157
1.03360e-05	-0.003026358092781677
1.03363e-05	-0.003010850019710038
1.03365e-05	-0.0029953419466385045
1.03368e-05	-0.002979833873566866
1.03370e-05	-0.0029643258004952273
1.03373e-05	-0.00294869510324861
1.03375e-05	-0.002932639652389215
1.03378e-05	-0.00291658420152982
1.03380e-05	-0.002900528750670534
1.03383e-05	-0.002884473299811139
1.03385e-05	-0.002868417848951744
1.03387e-05	-0.0028534785132020945
1.03390e-05	-0.0028389646128679094
1.03393e-05	-0.0028244507125337248
1.03395e-05	-0.002809936812199638
1.03398e-05	-0.0027954229118654535
1.03400e-05	-0.0027814006999851613
1.03402e-05	-0.0027690816306295183
1.03405e-05	-0.002757047505766809
1.03408e-05	-0.0027461193126856187
1.03410e-05	-0.002735472914355329
1.03413e-05	-0.0027238365728691886
1.03415e-05	-0.002710332628367908
1.03418e-05	-0.002695998643288148
1.03420e-05	-0.0026787895095340907
1.03423e-05	-0.0026615803757799165
1.03425e-05	-0.002643737388747246
1.03428e-05	-0.0026236988194013114
1.03430e-05	-0.0026027790867245277
1.03433e-05	-0.0025788071230506975
1.03435e-05	-0.00255483515937703
1.03438e-05	-0.002527170811684874
1.03440e-05	-0.002498099018724707
1.03443e-05	-0.002468012501176297
1.03445e-05	-0.002434411114437622
1.03448e-05	-0.002400809727698947
1.03450e-05	-0.0023672083409605
1.03453e-05	-0.002329845483639379
1.03455e-05	-0.002291048846964294
1.03458e-05	-0.0022522522102894713
1.03460e-05	-0.002212631007244912
1.03463e-05	-0.002170153617447344
1.03465e-05	-0.0021276762276500635
1.03468e-05	-0.002084897776235564
1.03470e-05	-0.0020410764879628257
1.03472e-05	-0.0019970904816401
1.03475e-05	-0.0019524652208216108
1.03478e-05	-0.0019075940090155072
1.03480e-05	-0.0018627477185964943
1.03483e-05	-0.0018181970794435558
1.03485e-05	-0.0017742125886059444
1.03487e-05	-0.001731049201642418
1.03490e-05	-0.0016888823521010782
1.03493e-05	-0.0016478012797780642
1.03495e-05	-0.001607940032535488
1.03498e-05	-0.0015695402021477544
1.03500e-05	-0.0015328842121850998
1.03503e-05	-0.001498254381900584
1.03505e-05	-0.0014659327213628554
1.03508e-05	-0.001436189059633975
1.03510e-05	-0.0014092203630208132
1.03513e-05	-0.0013851015882621496
1.03515e-05	-0.0013638512785305705
1.03518e-05	-0.0013455136405289246
1.03520e-05	-0.001330152805117506
1.03523e-05	-0.0013178325297156217
1.03525e-05	-0.0013089733102408666
1.03528e-05	-0.0013037964955022229
1.03530e-05	-0.0013000157288302258
1.03533e-05	-0.001301070684476625
1.03535e-05	-0.0013034423283057649
1.03538e-05	-0.0013103748025129216
1.03540e-05	-0.0013185568754183355
1.03543e-05	-0.0013310673897707636
1.03545e-05	-0.001344474243108128
1.03548e-05	-0.0013615567999499787
1.03550e-05	-0.001381154866207643
1.03553e-05	-0.0014031143157090195
1.03555e-05	-0.0014272587198504857
1.03557e-05	-0.0014534217781613612
1.03560e-05	-0.0014814450233095135
1.03563e-05	-0.0015111698976264397
1.03565e-05	-0.0015424378173641037
1.03568e-05	-0.0015750871614570695
1.03570e-05	-0.001608938616076871
1.03572e-05	-0.0016437825857362847
1.03575e-05	-0.0016793957971570474
1.03578e-05	-0.0017155612895670524
1.03580e-05	-0.0017520670706652525
1.03583e-05	-0.001788701069911887
1.03585e-05	-0.0018252510239989074
1.03588e-05	-0.001861503036822348
1.03590e-05	-0.0018972320016929411
1.03593e-05	-0.0019321940580538713
1.03595e-05	-0.001966136630372403
1.03598e-05	-0.0019988110369804275
1.03600e-05	-0.0020299717840441397
1.03603e-05	-0.0020593734159059275
1.03605e-05	-0.0020865180293429945
1.03608e-05	-0.0021110852711234544
1.03610e-05	-0.0021346805042829955
1.03613e-05	-0.0021549088306035066
1.03615e-05	-0.002175137156924155
1.03618e-05	-0.002192245779836021
1.03620e-05	-0.0022081652491328456
1.03623e-05	-0.0022228767199935382
1.03625e-05	-0.0022334038471054896
1.03628e-05	-0.00224393097421737
1.03630e-05	-0.0022532383984186226
1.03633e-05	-0.002258320936149169
1.03635e-05	-0.002263403473879681
1.03638e-05	-0.0022674462571710893
1.03640e-05	-0.0022678874712408143
1.03642e-05	-0.0022683286853105366
1.03645e-05	-0.002267736230155136
1.03648e-05	-0.0022635632841391234
1.03650e-05	-0.002259390338123139
1.03653e-05	-0.002254416734419756
1.03655e-05	-0.0022466697604134607
1.03657e-05	-0.002238922786407218
1.03660e-05	-0.0022305243467748773
1.03663e-05	-0.0022198693180293452
1.03665e-05	-0.002209214289283813
1.03668e-05	-0.002198047181085902
1.03670e-05	-0.0021851062986911907
1.03673e-05	-0.0021721654162964797
1.03675e-05	-0.0021589707804774753
1.03678e-05	-0.0021448971770013877
1.03680e-05	-0.0021308235735253006
1.03683e-05	-0.002116662395126488
1.03685e-05	-0.002102197868999706
1.03688e-05	-0.0020877333428729237
1.03690e-05	-0.0020734041692922274
1.03693e-05	-0.002059543838685727
1.03695e-05	-0.0020456835080792267
1.03698e-05	-0.002032122291821067
1.03700e-05	-0.002019597167345707
1.03703e-05	-0.002007412745309793
1.03705e-05	-0.001996408470598855
1.03708e-05	-0.0019860278955515435
1.03710e-05	-0.0019778077320671294
1.03713e-05	-0.0019695875685827703
1.03715e-05	-0.001962358999414938
1.03718e-05	-0.001958565179297019
1.03720e-05	-0.001954771359179125
1.03723e-05	-0.0019522522870789813
1.03725e-05	-0.001954148770281762
1.03727e-05	-0.0019560452534845307
1.03730e-05	-0.0019579417366873113
1.03733e-05	-0.0019598382198900925
1.03735e-05	-0.0019668416427530582
1.03738e-05	-0.0019757917044352694
1.03740e-05	-0.0019847417661174806
1.03742e-05	-0.0019936918277996315
1.03745e-05	-0.0020036643242425855
1.03748e-05	-0.0020171783968768653
1.03750e-05	-0.0020312608458862864
1.03753e-05	-0.0020473120740443535
1.03755e-05	-0.0020638753468822206
1.03758e-05	-0.0020822122734691466
1.03760e-05	-0.002100871255660986
1.03763e-05	-0.0021208263172774197
1.03765e-05	-0.002141561804329618
1.03768e-05	-0.0021629678229454488
1.03770e-05	-0.0021849516958346417
1.03773e-05	-0.002207435113355251
1.03775e-05	-0.002230320274714129
1.03778e-05	-0.002253478735327689
1.03780e-05	-0.0022767709774812513
1.03783e-05	-0.002300057302788465
1.03785e-05	-0.002323198169340387
1.03788e-05	-0.002346056663601687
1.03790e-05	-0.0023685064892372217
1.03793e-05	-0.0023904308507345946
1.03795e-05	-0.0024117002285964605
1.03798e-05	-0.002432045157284752
1.03800e-05	-0.002451254383878127
1.03803e-05	-0.002470066002587976
1.03805e-05	-0.0024871893372033667
1.03808e-05	-0.0025029695245240365
1.03810e-05	-0.0025177473802332866
1.03812e-05	-0.0025323255740352475
1.03815e-05	-0.0025473005900643352
1.03818e-05	-0.002562728162326522
1.03820e-05	-0.002578460164334687
1.03823e-05	-0.0025943473633044086
1.03825e-05	-0.0026102066050623304
1.03827e-05	-0.002625969006806947
1.03830e-05	-0.002641911435261604
1.03833e-05	-0.0026584774519728986
1.03835e-05	-0.002675401122791108
1.03838e-05	-0.002693563659225814
1.03840e-05	-0.0027120021427297076
1.03843e-05	-0.0027313964696847877
1.03845e-05	-0.0027507907966397363
1.03848e-05	-0.002770424585459297
1.03850e-05	-0.002790887837899392
1.03853e-05	-0.0028113510903393485
1.03855e-05	-0.002832144639502767
1.03858e-05	-0.0028540822919938
1.03860e-05	-0.002876148751078956
1.03863e-05	-0.0028987031581852543
1.03865e-05	-0.0029214112546404407
1.03868e-05	-0.002944145993109034
1.03870e-05	-0.002966881804563962
1.03873e-05	-0.0029897069183186732
1.03875e-05	-0.0030126585207378392
1.03878e-05	-0.0030356412150748
1.03880e-05	-0.0030585088078799202
1.03883e-05	-0.003081114591652812
1.03885e-05	-0.0031033124772622566
1.03888e-05	-0.0031249684280698206
1.03890e-05	-0.003146012740315382
1.03893e-05	-0.0031664465275711533
1.03895e-05	-0.0031862390150768707
1.03897e-05	-0.0032052765060881527
1.03900e-05	-0.003223283141823152
1.03903e-05	-0.0032400533510089312
1.03905e-05	-0.0032562475946886307
1.03908e-05	-0.003270446771491862
1.03910e-05	-0.0032836614684636353
1.03912e-05	-0.003293466060000104
1.03915e-05	-0.0033032706515366394
1.03918e-05	-0.0033130752430731744
1.03920e-05	-0.0033228798346097094
1.03923e-05	-0.003331234490033832
1.03925e-05	-0.003334566762205811
1.03928e-05	-0.0033378990343777893
1.03930e-05	-0.0033412313065497457
1.03933e-05	-0.0033445635787217242
1.03935e-05	-0.0033463174010225135
1.03938e-05	-0.0033426036857332145
1.03940e-05	-0.003338889970443891
1.03943e-05	-0.0033351762551545668
1.03945e-05	-0.0033314625398652683
1.03948e-05	-0.0033277488245759446
1.03950e-05	-0.0033240351092866205
1.03953e-05	-0.0033189322141519823
1.03955e-05	-0.0033090173872841367
1.03958e-05	-0.0032991025604162914
1.03960e-05	-0.003289187733548513
1.03963e-05	-0.0032792729066806674
1.03965e-05	-0.003269358079812822
1.03968e-05	-0.0032594432529450437
1.03970e-05	-0.0032489352667370293
1.03973e-05	-0.003236372656528041
1.03975e-05	-0.003223810046319138
1.03978e-05	-0.0032111252623991905
1.03980e-05	-0.0031980172852125502
1.03982e-05	-0.003184909308025999
1.03985e-05	-0.003171826019421906
1.03988e-05	-0.0031588282487399286
1.03990e-05	-0.0031458304780580394
1.03993e-05	-0.0031330452552081937
1.03995e-05	-0.003120996269399106
1.03997e-05	-0.0031089472835901
1.04000e-05	-0.003097291228742651
1.04003e-05	-0.003086996233782422
1.04005e-05	-0.0030767012388221936
1.04008e-05	-0.003066715685687479
1.04010e-05	-0.003057801997325834
1.04013e-05	-0.003048762684067586
1.04015e-05	-0.003039288223100765
1.04018e-05	-0.0030296337528103808
1.04020e-05	-0.003019355754487139
1.04023e-05	-0.0030090777561639667
1.04025e-05	-0.00299867480231767
1.04028e-05	-0.002987839019382448
1.04030e-05	-0.0029770032364472994
1.04033e-05	-0.002965720879940155
1.04035e-05	-0.0029528916527741113
1.04038e-05	-0.002940062425608155
1.04040e-05	-0.0029272331984421113
1.04043e-05	-0.002914403971276068
1.04045e-05	-0.002900206670021126
1.04048e-05	-0.002885487892831474
1.04050e-05	-0.002870769115641822
1.04053e-05	-0.0028560503384522694
1.04055e-05	-0.002840971872955863
1.04058e-05	-0.0028246474956475733
1.04060e-05	-0.002808323118339395
1.04063e-05	-0.0027918234312314847
1.04065e-05	-0.0027747164946078317
1.04067e-05	-0.002757609557984295
1.04070e-05	-0.0027405026213606423
1.04073e-05	-0.0027233956847369893
1.04075e-05	-0.0027062887481134525
1.04078e-05	-0.0026891818114898
1.04080e-05	-0.002672074874866147
1.04082e-05	-0.002655961784879902
1.04085e-05	-0.002640227524598975
1.04088e-05	-0.0026244932643180482
1.04090e-05	-0.002608759004037121
1.04093e-05	-0.0025930247437563007
1.04095e-05	-0.0025772904834753738
1.04098e-05	-0.0025615562231944464
1.04100e-05	-0.0025466370842841643
1.04103e-05	-0.002534541415931024
1.04105e-05	-0.0025224457475778836
1.04108e-05	-0.0025103500792248252
1.04110e-05	-0.0024987853892594445
1.04113e-05	-0.0024890599368587005
1.04115e-05	-0.0024793344844580224
1.04118e-05	-0.0024696090320572785
1.04120e-05	-0.002460264713995988
1.04123e-05	-0.0024522405939135846
1.04125e-05	-0.0024442164738311266
1.04128e-05	-0.0024361923537486686
1.04130e-05	-0.0024281682336662652
1.04133e-05	-0.0024211323335855523
1.04135e-05	-0.0024144731184763363
1.04138e-05	-0.0024078139033671658
1.04140e-05	-0.0024011546882579497
1.04143e-05	-0.002394791872332003
1.04145e-05	-0.0023894557432254577
1.04148e-05	-0.0023841196141188765
1.04150e-05	-0.0023787834850122953
1.04152e-05	-0.00237344735590575
1.04155e-05	-0.002368111226799169
1.04158e-05	-0.0023627750976925876
1.04160e-05	-0.002357438968586043
1.04163e-05	-0.002352360680863257
1.04165e-05	-0.002348175520939748
1.04167e-05	-0.0023439903610162675
1.04170e-05	-0.0023398052010927587
1.04173e-05	-0.00233562004116925
1.04175e-05	-0.002331434881245741
1.04178e-05	-0.0023272497213222606
1.04180e-05	-0.002323064561398752
1.04183e-05	-0.002319055908178425
1.04185e-05	-0.002315658650386823
1.04188e-05	-0.0023122613925951976
1.04190e-05	-0.0023088641348035723
1.04193e-05	-0.0023054668770119704
1.04195e-05	-0.0023024650570648347
1.04198e-05	-0.002299613968223079
1.04200e-05	-0.002296762879381342
1.04203e-05	-0.0022939117905395857
1.04205e-05	-0.0022911820930240226
1.04208e-05	-0.0022888728787002714
1.04210e-05	-0.002286824928693138
1.04213e-05	-0.002285681963063437
1.04215e-05	-0.0022850249278513653
1.04218e-05	-0.0022860510901081647
1.04220e-05	-0.002287077252364964
1.04223e-05	-0.0022886895970772527
1.04225e-05	-0.00229233239880482
1.04228e-05	-0.0022959752005323876
1.04230e-05	-0.0022996180022599303
1.04233e-05	-0.002305621036829751
1.04235e-05	-0.00231252373366065
1.04237e-05	-0.0023194264304915026
1.04240e-05	-0.0023269857467508987
1.04243e-05	-0.0023368195042060493
1.04245e-05	-0.0023466532616611326
1.04248e-05	-0.0023569953083487512
1.04250e-05	-0.0023690980004263083
1.04252e-05	-0.0023812006925037835
1.04255e-05	-0.002393713814879473
1.04258e-05	-0.002407648612486835
1.04260e-05	-0.002421830487169018
1.04263e-05	-0.002436868203535267
1.04265e-05	-0.0024520409334139997
1.04268e-05	-0.002467750442546187
1.04270e-05	-0.0024837638622911156
1.04273e-05	-0.0025000579912855497
1.04275e-05	-0.0025165890712181577
1.04278e-05	-0.0025332700900509825
1.04280e-05	-0.002549998136639756
1.04283e-05	-0.002566670195521916
1.04285e-05	-0.0025831830985274785
1.04288e-05	-0.0025994378426659514
1.04290e-05	-0.002615353712671709
1.04293e-05	-0.0026308700010223385
1.04295e-05	-0.002645912173333716
1.04298e-05	-0.002660292650940982
1.04300e-05	-0.0026738599253772447
1.04303e-05	-0.002687142672593227
1.04305e-05	-0.002699217137036005
1.04308e-05	-0.0027103209904879833
1.04310e-05	-0.002720644074261181
1.04313e-05	-0.002730659055950937
1.04315e-05	-0.0027407201544143397
1.04318e-05	-0.002750857134977742
1.04320e-05	-0.002760925178759677
1.04322e-05	-0.002770754434822317
1.04325e-05	-0.002780583690885023
1.04328e-05	-0.002790308246494266
1.04330e-05	-0.002799670133844881
1.04333e-05	-0.002809163044546153
1.04335e-05	-0.00281910980247369
1.04337e-05	-0.00282905656040116
1.04340e-05	-0.002839094335743816
1.04343e-05	-0.002849447383144529
1.04345e-05	-0.002859800430545242
1.04348e-05	-0.0028701534779458845
1.04350e-05	-0.002880605679562148
1.04353e-05	-0.002891401338016447
1.04355e-05	-0.002902196996470673
1.04358e-05	-0.002912992654924972
1.04360e-05	-0.002923870776722133
1.04363e-05	-0.002935034540423973
1.04365e-05	-0.0029461983041258887
1.04368e-05	-0.0029573293467628115
1.04370e-05	-0.002968347048040867
1.04373e-05	-0.0029793647493189974
1.04375e-05	-0.0029903626823447917
1.04378e-05	-0.003001292140808903
1.04380e-05	-0.0030122215992730884
1.04383e-05	-0.0030230410457613276
1.04385e-05	-0.003033479425592869
1.04388e-05	-0.0030437749680655942
1.04390e-05	-0.00305357574117956
1.04393e-05	-0.0030632341202858826
1.04395e-05	-0.0030723992657426735
1.04398e-05	-0.003081431353648794
1.04400e-05	-0.003089892701327724
1.04403e-05	-0.003097848059978037
1.04405e-05	-0.003105226954498853
1.04407e-05	-0.0031118637944320716
1.04410e-05	-0.00311711716342743
1.04413e-05	-0.00311985590351029
1.04415e-05	-0.003119275974039933
1.04418e-05	-0.0031152608492456654
1.04420e-05	-0.0031076055817250187
1.04422e-05	-0.0030962887318749387
1.04425e-05	-0.0030836351517587878
1.04428e-05	-0.0030663513181731082
1.04430e-05	-0.00304702277444529
1.04433e-05	-0.0030206116303825923
1.04435e-05	-0.0029942004863197156
1.04438e-05	-0.0029656823542960654
1.04440e-05	-0.0029298658999677117
1.04443e-05	-0.002892313968686186
1.04445e-05	-0.002848750579156402
