Time(s)	Current(A)
5.25000e-06	-0.0006781968626045561
5.25025e-06	-0.0006802745333207193
5.25050e-06	-0.0006823522040368826
5.25075e-06	-0.0006844298747530527
5.25100e-06	-0.000686507545469216
5.25125e-06	-0.0006885852161853791
5.25150e-06	-0.0006906628869015494
5.25175e-06	-0.0006927405576177125
5.25200e-06	-0.0006948182283338828
5.25225e-06	-0.0006967117623531571
5.25250e-06	-0.0006973705954644831
5.25275e-06	-0.0006980294285758112
5.25300e-06	-0.0006986882616871371
5.25325e-06	-0.0006993470947984629
5.25350e-06	-0.0007000059279097911
5.25375e-06	-0.0007005713975490538
5.25400e-06	-0.0007005108324778733
5.25425e-06	-0.0007004502674066926
5.25450e-06	-0.0007003897023355122
5.25475e-06	-0.0007003291372643317
5.25500e-06	-0.0007002685721931511
5.25525e-06	-0.0006997075761418168
5.25550e-06	-0.0006957910154695932
5.25575e-06	-0.0006918744547973563
5.25600e-06	-0.0006874984408393287
5.25625e-06	-0.0006800416320226619
5.25650e-06	-0.0006725848232060203
5.25675e-06	-0.0006646277634506863
5.25700e-06	-0.0006533163463155484
5.25725e-06	-0.0006420049291804488
5.25750e-06	-0.0006301090822684944
5.25775e-06	-0.0006142944294467709
5.25800e-06	-0.0005984797766251009
5.25825e-06	-0.0005821990706750903
5.25850e-06	-0.0005627933156158518
5.25875e-06	-0.0005433875605566792
5.25900e-06	-0.0005235327115218597
5.25925e-06	-0.0005006665304238576
5.25950e-06	-0.00047780034932593283
5.25975e-06	-0.0004545767166285341
5.26000e-06	-0.0004289562460288655
5.26025e-06	-0.0004033357754292837
5.26050e-06	-0.0003774970161270496
5.26075e-06	-0.00035019455478337843
5.26100e-06	-0.0003228920934397073
5.26125e-06	-0.0002955896320959436
5.26150e-06	-0.0002678064950998888
5.26175e-06	-0.00023974078996015307
5.26200e-06	-0.00021167508482032224
5.26225e-06	-0.00018369380542379994
5.26250e-06	-0.00015627863014186922
5.26275e-06	-0.00012897293676644424
5.26300e-06	-0.0001024891705556665
5.26325e-06	-7.66981975140214e-05
5.26350e-06	-5.173102259255049e-05
5.26375e-06	-2.7762673631844583e-05
5.26400e-06	-4.9736210542393584e-06
5.26425e-06	1.645569651544835e-05
5.26450e-06	3.634459113444418e-05
5.26475e-06	5.451075633954099e-05
5.26500e-06	7.077856712818304e-05
5.26525e-06	8.501749363529536e-05
5.26550e-06	9.716473791029056e-05
5.26575e-06	0.0001071908426278429
5.26600e-06	0.00011506905692466773
5.26625e-06	0.0001207726545981446
5.26650e-06	0.00012427477463365432
5.26675e-06	0.00012554752668391943
5.26700e-06	0.000124567224905028
5.26725e-06	0.0001213384301731967
5.26750e-06	0.00011590814199917418
5.26775e-06	0.00010834423081089208
5.26800e-06	9.871627659107153e-05
5.26825e-06	8.709385932235225e-05
5.26850e-06	7.354645700580535e-05
5.26875e-06	5.8142939362652564e-05
5.26900e-06	4.095477563093002e-05
5.26925e-06	2.207114339499176e-05
5.26950e-06	1.6077849935425421e-06
5.26975e-06	-2.030648162823925e-05
5.27000e-06	-4.354178470212489e-05
5.27025e-06	-6.796825293224837e-05
5.27050e-06	-9.34560821009591e-05
5.27075e-06	-0.00011991995015309298
5.27100e-06	-0.00014739213256293083
5.27125e-06	-0.0001750200774791672
5.27150e-06	-0.00020369246443784403
5.27175e-06	-0.00023236485139652087
5.27200e-06	-0.00026103723835529485
5.27225e-06	-0.00028956876425848373
5.27250e-06	-0.00031801748412238284
5.27275e-06	-0.0003464662039863783
5.27300e-06	-0.0003746476771727428
5.27325e-06	-0.00040103716798584916
5.27350e-06	-0.000427426658798866
5.27375e-06	-0.0004534400719019571
5.27400e-06	-0.00047693175252413756
5.27425e-06	-0.000500123411004028
5.27450e-06	-0.0005210606378664047
5.27475e-06	-0.0005400359487169713
5.27500e-06	-0.0005563027952614205
5.27525e-06	-0.0005689288135939018
5.27550e-06	-0.0005774951040844079
5.27575e-06	-0.0005820236924387274
5.27600e-06	-0.0005825898109456993
5.27625e-06	-0.0005792685119427832
5.27650e-06	-0.0005721289790398422
5.27675e-06	-0.0005611639462257332
5.27700e-06	-0.0005461006272197948
5.27725e-06	-0.0005265499200381001
5.27750e-06	-0.0005024443248103849
5.27775e-06	-0.0004739926683037708
5.27800e-06	-0.0004414368335660269
5.27825e-06	-0.0004050188873732873
5.27850e-06	-0.0003649770041055315
5.27875e-06	-0.00032150151280907377
5.27900e-06	-0.00027461644500434895
5.27925e-06	-0.00022427292484769595
5.27950e-06	-0.00017062364972493185
5.27975e-06	-0.00011399423406131477
5.28000e-06	-5.47311270221727e-05
5.28025e-06	6.819248138997363e-06
5.28050e-06	7.031286278472668e-05
5.28075e-06	0.00013543568881523634
5.28100e-06	0.00020204383828857148
5.28125e-06	0.000270217509313654
5.28150e-06	0.00033853669208113905
5.28175e-06	0.00040783158193800234
5.28200e-06	0.00047712647179463084
5.28225e-06	0.0005464213616512593
5.28250e-06	0.0006139948328424893
5.28275e-06	0.0006805563574657283
5.28300e-06	0.0007471178820889671
5.28325e-06	0.0008130184055241134
5.28350e-06	0.0008744866849789705
5.28375e-06	0.0009352030885186681
5.28400e-06	0.0009908779012753354
5.28425e-06	0.0010455709943835746
5.28450e-06	0.001093681314150722
5.28475e-06	0.0011407742509468256
5.28500e-06	0.001181045279357469
5.28525e-06	0.0012204786842615759
5.28550e-06	0.0012542955308149266
5.28575e-06	0.0012872214212922399
5.28600e-06	0.0013141731399021112
5.28625e-06	0.0013401409708115339
5.28650e-06	0.0013595114908333003
5.28675e-06	0.0013777270988497977
5.28700e-06	0.0013881986182430232
5.28725e-06	0.0013986701376362486
5.28750e-06	0.0014079697757991695
5.28775e-06	0.0014094115407548887
5.28800e-06	0.0014108533057106082
5.28825e-06	0.0014111343545262633
5.28850e-06	0.0014036323959673064
5.28875e-06	0.0013961304374083498
5.28900e-06	0.001387678031022432
5.28925e-06	0.001372852539787772
5.28950e-06	0.0013580270485531118
5.28975e-06	0.001342455697055012
5.29000e-06	0.0013218830918226142
5.29025e-06	0.0013013104865901468
5.29050e-06	0.0012799895808626065
5.29075e-06	0.0012536510587941357
5.29100e-06	0.0012273125367255758
5.29125e-06	0.001200974014657105
5.29150e-06	0.0011746354925886344
5.29175e-06	0.0011482969705200745
5.29200e-06	0.0011206166849840758
5.29225e-06	0.0010921476355276224
5.29250e-06	0.0010636785860710725
5.29275e-06	0.001035209536614619
5.29300e-06	0.0010067404871581657
5.29325e-06	0.0009785994194973313
5.29350e-06	0.0009526575844018462
5.29375e-06	0.0009267157493063611
5.29400e-06	0.0009013281373074968
5.29425e-06	0.0008796567848651429
5.29450e-06	0.0008579854324227155
5.29475e-06	0.0008368045205472231
5.29500e-06	0.0008189121840743542
5.29525e-06	0.0008010198476014246
5.29550e-06	0.0007835607528924753
5.29575e-06	0.0007690066956221902
5.29600e-06	0.0007544526383518556
5.29625e-06	0.0007398985810815705
5.29650e-06	0.0007253445238112853
5.29675e-06	0.0007107904665409508
5.29700e-06	0.0006962364092706656
5.29725e-06	0.0006816823520003804
5.29750e-06	0.0006694341378748435
5.29775e-06	0.0006585414278472457
5.29800e-06	0.0006476487178196478
5.29825e-06	0.0006367560077920132
5.29850e-06	0.0006258632977644153
5.29875e-06	0.0006149705877367805
5.29900e-06	0.0006040778777091827
5.29925e-06	0.0005934802836305758
5.29950e-06	0.0005848615451282827
5.29975e-06	0.0005762428066260186
5.30000e-06	0.0005676240681237545
5.30025e-06	0.0005590053296214613
5.30050e-06	0.0005503865911191974
5.30075e-06	0.0005417678526169333
5.30100e-06	0.0005331491141146401
5.30125e-06	0.0005245303756123761
5.30150e-06	0.000515911637110112
5.30175e-06	0.000507603864880634
5.30200e-06	0.0005013812301879577
5.30225e-06	0.0004951585954952813
5.30250e-06	0.0004889359608025839
5.30275e-06	0.00048271332610990754
5.30300e-06	0.0004764906914172101
5.30325e-06	0.00047026805672453374
5.30350e-06	0.00046404542203185733
5.30375e-06	0.0004578227873391599
5.30400e-06	0.00045160015264648353
5.30425e-06	0.00044558980361307217
5.30450e-06	0.00044100290411519993
5.30475e-06	0.0004364160046173432
5.30500e-06	0.00043156705473394806
5.30525e-06	0.00042496096543344965
5.30550e-06	0.00041795610564095034
5.30575e-06	0.0004082773503361742
5.30600e-06	0.00039825944597049733
5.30625e-06	0.0003859674286251806
5.30650e-06	0.0003733665091889532
5.30675e-06	0.0003586942932773437
5.30700e-06	0.0003436955607962939
5.30725e-06	0.0003262448559052118
5.30750e-06	0.0003067883464334223
5.30775e-06	0.0002854649488808361
5.30800e-06	0.0002624487294802382
5.30825e-06	0.0002379137291379203
5.30850e-06	0.0002120298830585945
5.30875e-06	0.0001849139705893238
5.30900e-06	0.0001564912763942894
5.30925e-06	0.00012657964323132428
5.30950e-06	9.518652535724835e-05
5.30975e-06	6.249602386076579e-05
5.31000e-06	2.8714222826119592e-05
5.31025e-06	-5.9528209125232026e-06
5.31050e-06	-4.130164441051303e-05
5.31075e-06	-7.71938445920576e-05
5.31100e-06	-0.00011369693831678597
5.31125e-06	-0.00015029956445267373
5.31150e-06	-0.00018756959019100453
5.31175e-06	-0.00022483961592920906
5.31200e-06	-0.00026200974382226876
5.31225e-06	-0.00029851002175140047
5.31250e-06	-0.0003350102996804085
5.31275e-06	-0.00037126186351373557
5.31300e-06	-0.0004058457124149458
5.31325e-06	-0.00044014907808144325
5.31350e-06	-0.00047257170563664967
5.31375e-06	-0.0005045976816496368
5.31400e-06	-0.0005339639704494293
5.31425e-06	-0.0005628159625553532
5.31450e-06	-0.0005882194155925819
5.31475e-06	-0.0006131922622699929
5.31500e-06	-0.0006352777428171926
5.31525e-06	-0.000657363223364467
5.31550e-06	-0.0006791256326814564
5.31575e-06	-0.0006987217364931593
5.31600e-06	-0.0007183178403047959
5.31625e-06	-0.0007379139441164325
5.31650e-06	-0.0007575100479281354
5.31675e-06	-0.000777106151739772
5.31700e-06	-0.0007963993653352354
5.31725e-06	-0.0008136615941774978
5.31750e-06	-0.0008309238230197016
5.31775e-06	-0.0008481860518619054
5.31800e-06	-0.0008654482807041677
5.31825e-06	-0.0008827105095463716
5.31850e-06	-0.0008997871998551745
5.31875e-06	-0.0009156197894558021
5.31900e-06	-0.000931452379056376
5.31925e-06	-0.0009472849686569499
5.31950e-06	-0.0009631175582575773
5.31975e-06	-0.0009789501478581512
5.32000e-06	-0.0009947827374587788
5.32025e-06	-0.0010106153270593526
5.32050e-06	-0.0010264479166599266
5.32075e-06	-0.0010422805062605541
5.32100e-06	-0.001058113095861128
5.32125e-06	-0.0010735889519671346
5.32150e-06	-0.0010866727853216195
5.32175e-06	-0.00109975661867606
5.32200e-06	-0.0011128404520305006
5.32225e-06	-0.0011259242853849855
5.32250e-06	-0.0011390081187394262
5.32275e-06	-0.0011520919520938667
5.32300e-06	-0.0011651757854483518
5.32325e-06	-0.0011782596188027923
5.32350e-06	-0.001191343452157233
5.32375e-06	-0.0012044272855117179
5.32400e-06	-0.0012170357145672227
5.32425e-06	-0.0012264563916554556
5.32450e-06	-0.0012358770687436566
5.32475e-06	-0.0012447245717941296
5.32500e-06	-0.0012497287426105382
5.32525e-06	-0.0012537320590182237
5.32550e-06	-0.0012510242968401901
5.32575e-06	-0.0012473222675056185
5.32600e-06	-0.0012369533294134762
5.32625e-06	-0.0012256667689593628
5.32650e-06	-0.0012082272298806805
5.32675e-06	-0.0011897775447416818
5.32700e-06	-0.00116455447724571
5.32725e-06	-0.001138130580868007
5.32750e-06	-0.0011036547071779084
5.32775e-06	-0.0010680919821993394
5.32800e-06	-0.0010252415395028314
5.32825e-06	-0.0009814620713971762
5.32850e-06	-0.0009314531632500145
5.32875e-06	-0.0008805671043048118
5.32900e-06	-0.0008237994427146827
5.32925e-06	-0.0007661450100673184
5.32950e-06	-0.0007025444675778791
5.32975e-06	-0.0006382383676776119
5.33000e-06	-0.0005692012587624513
5.33025e-06	-0.0004996672636688494
5.33050e-06	-0.00042680147309776326
5.33075e-06	-0.0003535810483234948
5.33100e-06	-0.0002779826772829531
5.33125e-06	-0.00020213341465178194
5.33150e-06	-0.00012460183622480428
5.33175e-06	-4.701142105817805e-05
5.33200e-06	2.843718368699949e-05
5.33225e-06	8.851959210741206e-05
5.33250e-06	0.00014872214474824017
5.33275e-06	-0.02629200385910594
5.33300e-06	-0.024402953404868886
5.33325e-06	-0.0176952927214378
5.33350e-06	-0.012791222943048328
5.33375e-06	0.008931437554233418
5.33400e-06	0.009783102876489017
5.33425e-06	0.007762140748258616
5.33450e-06	0.002740478039116744
5.33475e-06	-0.006144079086219151
5.33500e-06	-0.009533499227423605
5.33525e-06	-0.007193825464630644
5.33550e-06	-0.0023601264031089305
5.33575e-06	0.004483758198391589
5.33600e-06	0.007509682506703801
5.33625e-06	0.00674702527229184
5.33650e-06	0.003408354046314298
5.33675e-06	-0.0022836998232500915
5.33700e-06	-0.004500552531114872
5.33725e-06	-0.003104533603089528
5.33750e-06	-0.00012860635658198342
5.33775e-06	0.004119404616164968
5.33800e-06	0.005985410606241314
5.33825e-06	0.005485527884192529
5.33850e-06	0.003377639844343468
5.33875e-06	-0.00020002535558776664
5.33900e-06	-0.0015975002026826987
5.33925e-06	-0.000729510362684954
5.33950e-06	0.001129778550379099
5.33975e-06	0.0037870314923416433
5.34000e-06	0.004953031892789971
5.34025e-06	0.004637754615226515
5.34050e-06	0.003315847283430687
5.34075e-06	0.0010738211836358682
5.34100e-06	0.00019785756233093037
5.34125e-06	0.0007411325995736088
5.34150e-06	0.001905321112228201
5.34175e-06	0.0035691826665086752
5.34200e-06	0.004298698436786653
5.34225e-06	0.0041001314680517605
5.34250e-06	0.0032708067438089786
5.34275e-06	0.0018649076777674943
5.34300e-06	0.0013144229072379605
5.34325e-06	0.0016525247309946453
5.34350e-06	0.0023790286885864583
5.34375e-06	0.0034179024386164834
5.34400e-06	0.0038708365645162067
5.34425e-06	0.003741754100764877
5.34450e-06	0.0032168902577307474
5.34475e-06	0.0023300969173738213
5.34500e-06	0.00197805123356971
5.34525e-06	0.0021811258586179917
5.34550e-06	0.0026258398270627547
5.34575e-06	0.003264606208139193
5.34600e-06	0.0035348275294792425
5.34625e-06	0.0034390899487720117
5.34650e-06	0.003094174013774158
5.34675e-06	0.002521402016935933
5.34700e-06	0.0022825418245770355
5.34725e-06	0.002390419214114015
5.34750e-06	0.002648742912289904
5.34775e-06	0.003027787571948861
5.34800e-06	0.0031752440117901433
5.34825e-06	0.003092848869452287
5.34850e-06	0.002853866901132184
5.34875e-06	0.00247176404235949
5.34900e-06	0.002298523550904547
5.34925e-06	0.0023422561833903134
5.34950e-06	0.0024800872520735623
5.34975e-06	0.0026934852387886722
5.35000e-06	0.002761863463521853
5.35025e-06	0.0026864190248468032
5.35050e-06	0.0025131523621072286
5.35075e-06	0.002250603371266254
5.35100e-06	0.0021193483555199026
5.35125e-06	0.002124551802279381
5.35150e-06	0.0021893328708648043
5.35175e-06	0.0023021751914385387
5.35200e-06	0.0023250021461276244
5.35225e-06	0.002258667963212076
5.35250e-06	0.0021320909694318656
5.35275e-06	0.0019507222526739228
5.35300e-06	0.0018528262684969297
5.35325e-06	0.001841727011081038
5.35350e-06	0.0018693573604593077
5.35375e-06	0.0019285971251774166
5.35400e-06	0.0019330530603613129
5.35425e-06	0.0018833626127392803
5.35450e-06	0.0017977408983160426
5.35475e-06	0.0016797226765848609
5.35500e-06	0.0016160665120108738
5.35525e-06	0.0016089549647840368
5.35550e-06	0.001628253490606551
5.35575e-06	0.0016693977436997413
5.35600e-06	0.0016781556761680356
5.35625e-06	0.0016548135190193537
5.35650e-06	0.0016106677101317126
5.35675e-06	0.0015478181578280513
5.35700e-06	0.001520493453567501
5.35725e-06	0.001529941701991939
5.35750e-06	0.0015571683692257908
5.35775e-06	0.0015991967543313981
5.35800e-06	0.001621940328436454
5.35825e-06	0.0016254643224853003
5.35850e-06	0.001616730476454178
5.35875e-06	0.0015969393195906405
5.35900e-06	0.0015999433838379757
5.35925e-06	0.0016264064440237433
5.35950e-06	0.0016643128688063147
5.35975e-06	0.0017116814871483102
5.36000e-06	0.001747044864864921
5.36025e-06	0.0017703293078856993
5.36050e-06	0.0017828886874838195
5.36075e-06	0.0017933190346582255
5.36100e-06	0.0018161849270951999
5.36125e-06	0.0018525256096464469
5.36150e-06	0.0018975184660080344
5.36175e-06	0.0019440179469670624
5.36200e-06	0.001983206574308436
5.36225e-06	0.002014384695292521
5.36250e-06	0.0020372754381591204
5.36275e-06	0.0020584921305620793
5.36300e-06	0.0020859410076985016
5.36325e-06	0.0021202814114510094
5.36350e-06	0.002157180018213689
5.36375e-06	0.0021920023915353365
5.36400e-06	0.0022262340840880188
5.36425e-06	0.002251382327746545
5.36450e-06	0.002267570411023598
5.36475e-06	0.0022820950850667063
5.36500e-06	0.0022987506047297073
5.36525e-06	0.0023159345539692593
5.36550e-06	0.0023306084342939503
5.36575e-06	0.0023446598412486756
5.36600e-06	0.0023587112482034013
5.36625e-06	0.002361753332762823
5.36650e-06	0.002362065209409997
5.36675e-06	0.0023569155056954185
5.36700e-06	0.0023504113816649476
5.36725e-06	0.002343172691291379
5.36750e-06	0.0023357518354066033
5.36775e-06	0.0023283309795218525
5.36800e-06	0.0023116840151432183
5.36825e-06	0.002292749063048003
5.36850e-06	0.0022738141109528522
5.36875e-06	0.0022488380160988
5.36900e-06	0.0022223637749314035
5.36925e-06	0.0021958895337640966
5.36950e-06	0.0021667875326215114
5.36975e-06	0.0021370338718382387
5.37000e-06	0.002107280211055067
5.37025e-06	0.0020712747576167342
5.37050e-06	0.00203371891868153
5.37075e-06	0.001996163079746453
5.37100e-06	0.0019586072408112483
5.37125e-06	0.0019210514018761712
5.37150e-06	0.0018819160898330368
5.37175e-06	0.0018423890833855875
5.37200e-06	0.0018028620769382723
5.37225e-06	0.0017633350704909572
5.37250e-06	0.001723808064043508
5.37275e-06	0.0016877558076392658
5.37300e-06	0.001652565256407969
5.37325e-06	0.001617374705176553
5.37350e-06	0.001582184153945256
5.37375e-06	0.0015469936027139592
5.37400e-06	0.0015118030514825432
5.37425e-06	0.0014766125002512462
5.37450e-06	0.0014455477921116568
5.37475e-06	0.0014240512527969912
5.37500e-06	0.0014025547134823985
5.37525e-06	0.0013810581741677329
5.37550e-06	0.0013595616348531401
5.37575e-06	0.0013380650955385474
5.37600e-06	0.0013165685562238818
5.37625e-06	0.001295072016909289
5.37650e-06	0.0012815742284644797
5.37675e-06	0.0012700600546438259
5.37700e-06	0.001258545880823211
5.37725e-06	0.001251723646908975
5.37750e-06	0.0012460649697506995
5.37775e-06	0.001240406292592443
5.37800e-06	0.0012409409636730045
5.37825e-06	0.001243011526587026
5.37850e-06	0.0012450820895010403
5.37875e-06	0.0012471526524150546
5.37900e-06	0.0012492232153290758
5.37925e-06	0.0012512937782430903
5.37950e-06	0.0012533643411571115
5.37975e-06	0.0012578775894976928
5.38000e-06	0.00126805562586459
5.38025e-06	0.0012782336622315222
5.38050e-06	0.0012884116985984197
5.38075e-06	0.0012985897349653173
5.38100e-06	0.0013087677713322491
5.38125e-06	0.0013189458076991467
5.38150e-06	0.0013291238440660443
5.38175e-06	0.0013414554558193398
5.38200e-06	0.0013543211339161478
5.38225e-06	0.0013671868120129558
5.38250e-06	0.0013800524901098077
5.38275e-06	0.0013929181682066157
5.38300e-06	0.0014057838463034237
5.38325e-06	0.0014186495244002753
5.38350e-06	0.0014304476640384417
5.38375e-06	0.001439770094356076
5.38400e-06	0.0014490925246736788
5.38425e-06	0.0014584149549912813
5.38450e-06	0.0014677373853089156
5.38475e-06	0.0014770598156265183
5.38500e-06	0.001486382245944121
5.38525e-06	0.0014957046762617552
5.38550e-06	0.0014949857737200608
5.38575e-06	0.0014917767155247083
5.38600e-06	0.001488567657329345
5.38625e-06	0.0014853585991339924
5.38650e-06	0.00148214954093864
5.38675e-06	0.0014789404827432763
5.38700e-06	0.0014757314245479238
5.38725e-06	0.0014725223663525713
5.38750e-06	0.0014693133081572077
5.38775e-06	0.0014661042499618552
5.38800e-06	0.0014508104995661927
5.38825e-06	0.001432519859711163
5.38850e-06	0.0014142292198561957
5.38875e-06	0.001395938580001166
5.38900e-06	0.0013776479401461984
5.38925e-06	0.0013593573002912307
5.38950e-06	0.0013410666604362013
5.38975e-06	0.0013227760205812337
5.39000e-06	0.001304485380726266
5.39025e-06	0.0012861947408712364
5.39050e-06	0.001261984183516896
5.39075e-06	0.0012363055425690106
5.39100e-06	0.0012106269016210383
5.39125e-06	0.0011849482606731527
5.39150e-06	0.0011592696197252673
5.39175e-06	0.001133590978777295
5.39200e-06	0.001107982754042307
5.39225e-06	0.001082537830285513
5.39250e-06	0.0010570929065286327
5.39275e-06	0.0010316479827718386
5.39300e-06	0.0010062030590149585
5.39325e-06	0.0009807581352581645
5.39350e-06	0.0009553132115013704
5.39375e-06	0.0009329399993044846
5.39400e-06	0.0009113285425452106
5.39425e-06	0.0008897170857859366
5.39450e-06	0.0008710124660667772
5.39475e-06	0.0008530287144624437
5.39500e-06	0.0008388389370764554
5.39525e-06	0.0008255900294414221
5.39550e-06	0.0008172955267701829
