Time(s)	Current(A)
7.75000e-06	0.0008519923489311589
7.75025e-06	0.0008291589863707782
7.75050e-06	0.0008063256238105524
7.75075e-06	0.0007834922612501718
7.75100e-06	0.0007640412638086515
7.75125e-06	0.0007451274781357791
7.75150e-06	0.0007262136924627785
7.75175e-06	0.0007072999067897779
7.75200e-06	0.0006883861211169055
7.75225e-06	0.0006713895107499783
7.75250e-06	0.0006577580526661897
7.75275e-06	0.0006441265945824012
7.75300e-06	0.0006317083023238692
7.75325e-06	0.0006214194385705902
7.75350e-06	0.0006111305748173111
7.75375e-06	0.00060220325161315
7.75400e-06	0.0005956657939955294
7.75425e-06	0.0005891283363779087
7.75450e-06	0.0005838486978424148
7.75475e-06	0.0005807768661479142
7.75500e-06	0.0005777050344534135
7.75525e-06	0.0005757260632312705
7.75550e-06	0.0005756653526409376
7.75575e-06	0.0005756046420506047
7.75600e-06	0.0005766167926817387
7.75625e-06	0.0005795120999432485
7.75650e-06	0.0005824074072047584
7.75675e-06	0.000586578083192793
7.75700e-06	0.0005929873703128754
7.75725e-06	0.000599396657432958
7.75750e-06	0.0006058059445529972
7.75775e-06	0.0006122152316730796
7.75800e-06	0.0006186245187931622
7.75825e-06	0.0006250338059132013
7.75850e-06	0.0006324144349185824
7.75875e-06	0.0006415000271336648
7.75900e-06	0.0006505856193486857
7.75925e-06	0.0006596712115637682
7.75950e-06	0.0006687568037788506
7.75975e-06	0.0006778423959938716
7.76000e-06	0.0006869279882089541
7.76025e-06	0.0006959700569395473
7.76050e-06	0.0007049357303854335
7.76075e-06	0.0007139014038313804
7.76100e-06	0.0007228670772773273
7.76125e-06	0.0007318327507232743
7.76150e-06	0.0007390773773060421
7.76175e-06	0.0007454337565474294
7.76200e-06	0.0007517901357888168
7.76225e-06	0.000758146515030161
7.76250e-06	0.0007645028942715484
7.76275e-06	0.0007710517104208617
7.76300e-06	-0.01001876130657912
7.76325e-06	-0.04636308237951506
7.76350e-06	-0.02292313616639417
7.76375e-06	-0.005710611781189067
7.76400e-06	0.014017682388734513
7.76425e-06	0.024806201450427362
7.76450e-06	0.01963772796488105
7.76475e-06	0.006670655068228165
7.76500e-06	-0.009762881546980764
7.76525e-06	-0.01901706611735734
7.76550e-06	-0.013451445798133056
7.76575e-06	-0.0019669184324038616
7.76600e-06	0.010165562731316559
7.76625e-06	0.016755847298845952
7.76650e-06	0.01342290705994936
7.76675e-06	0.005240705523159775
7.76700e-06	-0.005094572646362415
7.76725e-06	-0.010923044847790334
7.76750e-06	-0.0074634796726385354
7.76775e-06	-0.00029397406408539
7.76800e-06	0.007282586766437121
7.76825e-06	0.011388347155217408
7.76850e-06	0.009279218821224296
7.76875e-06	0.004133801719093852
7.76900e-06	-0.002358912202430344
7.76925e-06	-0.006027314439787477
7.76950e-06	-0.003876896981107867
7.76975e-06	0.0005978092132955855
7.77000e-06	0.0053277224966666
7.77025e-06	0.007883806754657947
7.77050e-06	0.006547408716982724
7.77075e-06	0.0033098278400000205
7.77100e-06	-0.0007708631342342367
7.77125e-06	-0.0030816500791280917
7.77150e-06	-0.0017470572352554217
7.77175e-06	0.0010436812232511136
7.77200e-06	0.003994390767312796
7.77225e-06	0.005583557194257805
7.77250e-06	0.0047347849518554
7.77275e-06	0.00269559335913215
7.77300e-06	0.0001288369450942147
7.77325e-06	-0.001328731798562033
7.77350e-06	-0.0005024849121402578
7.77375e-06	0.0012360864677050934
7.77400e-06	0.00307500279389141
7.77425e-06	0.004061213914741501
7.77450e-06	0.0035205660040254455
7.77475e-06	0.0022345975983510376
7.77500e-06	0.0006185608220111199
7.77525e-06	-0.00030230958111420874
7.77550e-06	0.00020766709928574383
7.77575e-06	0.001289292107251934
7.77600e-06	0.002433906902040362
7.77625e-06	0.003044537585623611
7.77650e-06	0.0026989576393840436
7.77675e-06	0.0018867816965286667
7.77700e-06	0.0008681487431994885
7.77725e-06	0.00028524969739056045
7.77750e-06	0.0005988490974236755
7.77775e-06	0.0012706849455029466
7.77800e-06	0.001982112881638624
7.77825e-06	0.0023591994769597744
7.77850e-06	0.002137502566176061
7.77875e-06	0.0016237546741676727
7.77900e-06	0.0009809235762566206
7.77925e-06	0.0006112684365746244
7.77950e-06	0.000803371844172988
7.77975e-06	0.0012200300498960656
7.78000e-06	0.0016616321886417532
7.78025e-06	0.001893954637730847
7.78050e-06	0.0017513772857216823
7.78075e-06	0.0014260619893237533
7.78100e-06	0.0010201035941578686
7.78125e-06	0.0007854726402224638
7.78150e-06	0.000902913308660467
7.78175e-06	0.0011611794599790872
7.78200e-06	0.0014352307081754603
7.78225e-06	0.0015784689027218935
7.78250e-06	0.00148758331088944
7.78275e-06	0.0012835232468073514
7.78300e-06	0.0010305458622501275
7.78325e-06	0.0008864775095269459
7.78350e-06	0.0009644320561054293
7.78375e-06	0.0011319823480912996
7.78400e-06	0.001310710035716407
7.78425e-06	0.001408700876032635
7.78450e-06	0.0013611632427429725
7.78475e-06	0.0012437812179034143
7.78500e-06	0.0010967217851403496
7.78525e-06	0.0010187572505901362
7.78550e-06	0.0010806445527786238
7.78575e-06	0.001199334723016821
7.78600e-06	0.001325615862570031
7.78625e-06	0.0014018272569864812
7.78650e-06	0.001387302327041964
7.78675e-06	0.0013293680750782891
7.78700e-06	0.0012531004383238176
7.78725e-06	0.0012202817407659008
7.78750e-06	0.001275140701152774
7.78775e-06	0.001365562730304577
7.78800e-06	0.0014606325036636515
7.78825e-06	0.0015241454702849936
7.78850e-06	0.0015305451948744663
7.78875e-06	0.001509394026454655
7.78900e-06	0.0014763144146199088
7.78925e-06	0.0014699191266115104
7.78950e-06	0.0015178222989291504
7.78975e-06	0.001587289190701993
7.79000e-06	0.0016588665929713534
7.79025e-06	0.0017097900966751777
7.79050e-06	0.0017239671953739823
7.79075e-06	0.001719831490070851
7.79100e-06	0.0017070834164780403
7.79125e-06	0.0017098231581214815
7.79150e-06	0.001745259321738848
7.79175e-06	0.0017922984991661484
7.79200e-06	0.0018394901274212585
7.79225e-06	0.0018729674940671864
7.79250e-06	0.0018808611842448363
7.79275e-06	0.0018740919840422507
7.79300e-06	0.0018603376301837668
7.79325e-06	0.001855865272821332
7.79350e-06	0.0018684336353282601
7.79375e-06	0.0018859770287849142
7.79400e-06	0.0019020523549147627
7.79425e-06	0.0019084888102425632
7.79450e-06	0.0018968535342487251
7.79475e-06	0.0018743506664993925
7.79500e-06	0.0018463437012048172
7.79525e-06	0.0018234235920922574
7.79550e-06	0.0018097787089459872
7.79575e-06	0.0017981737517375066
7.79600e-06	0.0017849515905226632
7.79625e-06	0.0017636089931386397
7.79650e-06	0.0017312746375012086
7.79675e-06	0.0016945246609925194
7.79700e-06	0.0016517977349529045
7.79725e-06	0.0016129239385014476
7.79750e-06	0.0015792657078242006
7.79775e-06	0.001545738454716358
7.79800e-06	0.0015123884918113086
7.79825e-06	0.0014742963297116954
7.79850e-06	0.0014297851642421121
7.79875e-06	0.001383066398553724
7.79900e-06	0.0013333594426477202
7.79925e-06	0.0012871655923614046
7.79950e-06	0.0012457270540907125
7.79975e-06	0.0012042885158200206
7.80000e-06	0.0011636705823576607
7.80025e-06	0.001122308408633835
7.80050e-06	0.0010784353155428835
7.80075e-06	0.0010345907006755859
7.80100e-06	0.0009907846337061763
7.80125e-06	0.0009505981328499785
7.80150e-06	0.0009153110480937985
7.80175e-06	0.0008825275243884851
7.80200e-06	0.0008531328011463364
7.80225e-06	0.0008241571146194785
7.80250e-06	0.000795748632880017
7.80275e-06	0.0007676074853614536
7.80300e-06	0.0007398281993328245
7.80325e-06	0.0007142469424650363
7.80350e-06	0.0006916409205075644
7.80375e-06	0.0006705420061949453
7.80400e-06	0.0006514831008860083
7.80425e-06	0.000632633979797183
7.80450e-06	0.0006140688209718153
7.80475e-06	0.000595626972977355
7.80500e-06	0.0005773520375493018
7.80525e-06	0.0005606586430787375
7.80550e-06	0.0005461060099559847
7.80575e-06	0.0005315533768331333
7.80600e-06	0.0005178277086135716
7.80625e-06	0.0005052214135551533
7.80650e-06	0.0004926241124875827
7.80675e-06	0.0004800389856150978
7.80700e-06	0.0004674538587426982
7.80725e-06	0.0004558791915005003
7.80750e-06	0.0004456722744325106
7.80775e-06	0.0004354653573645901
7.80800e-06	0.00042578669918017854
7.80825e-06	0.0004168230880480237
7.80850e-06	0.0004078594769159296
7.80875e-06	0.0003990895539753098
7.80900e-06	0.00039058180584087556
7.80925e-06	0.00038207405770649896
7.80950e-06	0.0003742990766408327
7.80975e-06	0.0003675159632916036
7.81000e-06	0.0003607328499424205
7.81025e-06	0.0003541640590278953
7.81050e-06	0.0003478853732681423
7.81075e-06	0.00034160668750843185
7.81100e-06	0.0003356976704392258
7.81125e-06	0.00033028903398970005
7.81150e-06	0.0003248803975402109
7.81175e-06	0.0003199293396536333
7.81200e-06	0.0003155976564956754
7.81225e-06	0.0003118591563052122
7.81250e-06	0.00030892358389428845
7.81275e-06	0.0003072247243946142
7.81300e-06	0.00030818336386842965
7.81325e-06	0.0003115297792596526
7.81350e-06	0.00031726652179857084
7.81375e-06	0.0003251758712597835
7.81400e-06	0.0003350904191157937
7.81425e-06	0.0003469209526195081
7.81450e-06	0.00036084775774634405
7.81475e-06	0.0003772922700153581
7.81500e-06	0.00039642267000249127
7.81525e-06	0.00041821087442062615
7.81550e-06	0.00044298744727251356
7.81575e-06	0.00046974721156851625
7.81600e-06	0.0004981591270699962
7.81625e-06	0.0005288073813935392
7.81650e-06	0.0005611018204690864
7.81675e-06	0.0005956245222223898
7.81700e-06	0.000631760120243836
7.81725e-06	0.0006700789219151026
7.81750e-06	0.0007098674290889448
7.81775e-06	0.0007516453180224793
7.81800e-06	0.0007934232069562968
7.81825e-06	0.0008362361962524992
7.81850e-06	0.0008804502892233358
7.81875e-06	0.000924664382194472
7.81900e-06	0.0009693899455408236
7.81925e-06	0.0010148078311470034
7.81950e-06	0.001060225716753491
7.81975e-06	0.0011051641426784342
7.82000e-06	0.001149453575765046
7.82025e-06	0.0011937430088519577
7.82050e-06	0.0012366687517648704
7.82075e-06	0.0012777486144290137
7.82100e-06	0.0013188284770928786
7.82125e-06	0.001357659363883594
7.82150e-06	0.0013934460546949103
7.82175e-06	0.0014292327455059839
7.82200e-06	0.001461693506285129
7.82225e-06	0.0014896523144414804
7.82250e-06	0.0015176111225976422
7.82275e-06	0.0015418410270603942
7.82300e-06	0.0015610235169348564
7.82325e-06	0.0015802060068091889
7.82350e-06	0.0015954725080861989
7.82375e-06	0.001605438358126538
7.82400e-06	0.0016154042081668097
7.82425e-06	0.0016212971075681394
7.82450e-06	0.001621676893153047
7.82475e-06	0.001622056678737952
7.82500e-06	0.0016186649896218186
7.82525e-06	0.0016101682621378125
7.82550e-06	0.0016016715346538638
7.82575e-06	0.0015896837867047779
7.82600e-06	0.001572970621026694
7.82625e-06	0.0015562574553487233
7.82650e-06	0.0015364857392003003
7.82675e-06	0.0015125739932919406
7.82700e-06	0.001488662247383743
7.82725e-06	0.0014623346874825293
7.82750e-06	0.0014327371008408204
7.82775e-06	0.001403139514199312
7.82800e-06	0.0013717320496980222
7.82825e-06	0.0013378747488204511
7.82850e-06	0.0013040174479431095
7.82875e-06	0.0012691210154828192
7.82900e-06	0.0012328180227192005
7.82925e-06	0.001196515029955582
7.82950e-06	0.0011599964122364207
7.82975e-06	0.001123185926279851
7.83000e-06	0.0010863754403232816
7.83025e-06	0.001050180057610996
7.83050e-06	0.001014817273791559
7.83075e-06	0.000979454489972122
7.83100e-06	0.000945649867679623
7.83125e-06	0.0009139543605232708
7.83150e-06	0.0008822588533669186
7.83175e-06	0.00085255494637916
7.83200e-06	0.0008255468536497852
7.83225e-06	0.0008004180062745095
7.83250e-06	0.0007778328905687353
7.83275e-06	0.000755247774862808
7.83300e-06	0.0007339196909853898
7.83325e-06	0.000714293115463398
7.83350e-06	0.0006946665399412733
7.83375e-06	0.0006766538458217497
7.83400e-06	0.0006608256888228551
7.83425e-06	0.0006449975318238531
7.83450e-06	0.0006304121448711868
7.83475e-06	0.0006175089616382813
7.83500e-06	0.0006046057784052884
7.83525e-06	0.0005925650620201353
7.83550e-06	0.0005816917739488051
7.83575e-06	0.0005708184858774012
7.83600e-06	0.0005610170655370352
7.83625e-06	0.0005526665168922313
7.83650e-06	0.0005443159682473707
7.83675e-06	0.0005365919652473909
7.83700e-06	0.0005297160494841587
7.83725e-06	0.0005228401337208799
7.83750e-06	0.0005165643999150388
7.83775e-06	0.0005111010676668079
7.83800e-06	0.0005056377354186142
7.83825e-06	0.0005007718481846509
7.83850e-06	0.0004967146578036604
7.83875e-06	0.0004926574674226973
7.83900e-06	0.000488904555873204
7.83925e-06	0.0004855635137469855
7.83950e-06	0.00048222247162078965
7.83975e-06	0.00047923952388314776
7.84000e-06	0.00047674128988184903
7.84025e-06	0.00047424305588056716
7.84050e-06	0.00047197780416580545
7.84075e-06	0.00047002791543414204
7.84100e-06	0.0004680780267024918
7.84125e-06	0.0004662338688880102
7.84150e-06	0.00046453282760802863
7.84175e-06	0.00046283178632805863
7.84200e-06	0.0004620040364962942
7.84225e-06	0.00046235836707215534
7.84250e-06	0.0004627126976480141
7.84275e-06	0.0004630670282238753
7.84300e-06	0.00046342135879973644
7.84325e-06	0.0004637756893755952
7.84350e-06	0.0004641300199514564
7.84375e-06	0.00046448435052731755
7.84400e-06	0.00046483868110317627
7.84425e-06	0.00047006185536283034
7.84450e-06	0.0004756804696718136
7.84475e-06	0.0004812990839807588
7.84500e-06	0.00048691769828974207
7.84525e-06	0.0004925363125987253
7.84550e-06	0.0004981549269076706
7.84575e-06	0.0005037735412166539
7.84600e-06	0.0005093921555256371
7.84625e-06	0.0005168904441778809
7.84650e-06	0.0005269330451767339
7.84675e-06	0.000536975646175655
7.84700e-06	0.000547018247174576
7.84725e-06	0.000557060848173429
7.84750e-06	0.00056710344917235
7.84775e-06	0.0005771460501712712
7.84800e-06	0.0005880680437265196
7.84825e-06	0.0006001803761014414
7.84850e-06	0.0006122927084763633
7.84875e-06	0.000624405040851203
7.84900e-06	0.000636517373226125
7.84925e-06	0.0006486297056010468
7.84950e-06	0.0006607420379758866
7.84975e-06	0.0006724705746056785
7.85000e-06	0.0006836796083457419
7.85025e-06	0.0006948886420857295
7.85050e-06	0.000706097675825793
7.85075e-06	0.0007173067095658565
7.85100e-06	0.0007285157433058441
7.85125e-06	0.0007397247770459075
7.85150e-06	0.0007509338107859711
7.85175e-06	0.0007595294377022357
7.85200e-06	0.00076791280770683
7.85225e-06	0.0007762961777114242
7.85250e-06	0.0007846795477159618
7.85275e-06	0.0007930629177205561
7.85300e-06	0.0008014462877251505
7.85325e-06	0.000809829657729688
7.85350e-06	0.0008186857123270978
7.85375e-06	0.0008281815890565862
7.85400e-06	0.0008376774657860102
7.85425e-06	0.0008471733425154986
7.85450e-06	0.000856669219244987
7.85475e-06	0.0008661650959744753
7.85500e-06	0.0008756609727038994
7.85525e-06	0.0008851568494333878
7.85550e-06	0.0008946527261628762
7.85575e-06	0.0009041486028923001
7.85600e-06	0.0009136444796217885
7.85625e-06	0.0009231403563512769
7.85650e-06	0.0009326362330807009
7.85675e-06	0.0009444414652218197
7.85700e-06	0.0009564342596833681
7.85725e-06	0.0009684270541448351
7.85750e-06	0.0009804198486063835
7.85775e-06	0.0009924126430679318
7.85800e-06	0.0010044054375293989
7.85825e-06	0.0010163982319909472
7.85850e-06	0.0010283910264524954
7.85875e-06	0.0010403838209139624
7.85900e-06	0.0010523766153755108
7.85925e-06	0.0010643694098370592
7.85950e-06	0.0010763622042985262
7.85975e-06	0.0010868764835391966
7.86000e-06	0.001095389456252172
7.86025e-06	0.0011039024289650895
7.86050e-06	0.0011124154016780648
7.86075e-06	0.0011209283743910403
7.86100e-06	0.001129441347103958
7.86125e-06	0.0011379543198169332
7.86150e-06	0.0011464672925299085
7.86175e-06	0.001154980265242826
7.86200e-06	0.0011634932379558014
7.86225e-06	0.0011720062106687769
7.86250e-06	0.0011805191833816945
7.86275e-06	0.0011890321560946698
7.86300e-06	0.001197545128807645
7.86325e-06	0.0012060581015206203
7.86350e-06	0.001214571074233538
7.86375e-06	0.0012230840469465135
7.86400e-06	0.0012242934628392335
7.86425e-06	0.001224909694998241
7.86450e-06	0.0012255259271572525
7.86475e-06	0.0012261421593162641
7.86500e-06	0.0012267583914752714
7.86525e-06	0.001227374623634283
7.86550e-06	0.0012279908557932945
7.86575e-06	0.001228607087952302
7.86600e-06	0.0012292233201113135
7.86625e-06	0.0012298395522703249
7.86650e-06	0.0012304557844293323
7.86675e-06	0.001231072016588344
7.86700e-06	0.0012316882487473555
7.86725e-06	0.0012323044809063627
7.86750e-06	0.0012329207130653743
7.86775e-06	0.0012335369452243859
7.86800e-06	0.0012326711361525335
7.86825e-06	0.0012297992477732775
7.86850e-06	0.0012269273593940218
7.86875e-06	0.0012240554710147853
7.86900e-06	0.0012211835826355293
7.86925e-06	0.0012183116942562733
7.86950e-06	0.0012154398058770368
7.86975e-06	0.001212567917497781
7.87000e-06	0.001209696029118525
7.87025e-06	0.0012068670305071863
7.87050e-06	0.0012040960871469882
7.87075e-06	0.0012013251437867898
7.87100e-06	0.0011985542004266103
7.87125e-06	0.001195783257066412
7.87150e-06	0.0011930123137062136
7.87175e-06	0.0011902413703460154
7.87200e-06	0.0011874704269858357
7.87225e-06	0.0011846994836256376
7.87250e-06	0.0011848639846238004
7.87275e-06	0.0011890018799266219
7.87300e-06	0.0011931397752294713
7.87325e-06	0.0011972776705323205
7.87350e-06	0.001201415565835142
7.87375e-06	0.0012055534611379913
7.87400e-06	0.0012096913564408405
7.87425e-06	0.001213829251743662
7.87450e-06	0.0012179671470465114
7.87475e-06	0.0012221050423493606
7.87500e-06	0.001226242937652182
7.87525e-06	0.0012303808329550314
7.87550e-06	0.0012392052776425762
7.87575e-06	0.001254373398571841
7.87600e-06	0.0012695415195012084
7.87625e-06	0.0012847096404305762
7.87650e-06	0.001299877761359841
7.87675e-06	0.0013150458822892084
7.87700e-06	0.0013302140032185761
7.87725e-06	0.0013453821241478409
7.87750e-06	0.0013605502450772084
7.87775e-06	0.0013757183660065761
7.87800e-06	0.0013908864869358409
7.87825e-06	0.0014060546078652086
7.87850e-06	0.001422936168564314
7.87875e-06	0.0014421370278063029
7.87900e-06	0.0014613378870484217
7.87925e-06	0.0014805387462905406
7.87950e-06	0.0014997396055325294
7.87975e-06	0.0015189404647746483
7.88000e-06	0.0015381413240167672
7.88025e-06	0.0015573421832588861
7.88050e-06	0.0015749712683929909
7.88075e-06	0.0015904728125053305
7.88100e-06	0.00160597435661767
7.88125e-06	0.0016214759007299048
7.88150e-06	0.0016369774448422444
7.88175e-06	0.001652478988954584
7.88200e-06	0.0016679805330668187
7.88225e-06	0.0016834820771791583
7.88250e-06	0.0016961615787109859
7.88275e-06	0.001705021185688064
7.88300e-06	0.0017138807926652022
7.88325e-06	0.0017227403996423407
7.88350e-06	0.0017316000066194188
7.88375e-06	0.001740459613596557
7.88400e-06	0.0017493192205736952
7.88425e-06	0.0017581788275507736
7.88450e-06	0.0017670384345279118
7.88475e-06	0.00177589804150505
7.88500e-06	0.0017847576484821283
7.88525e-06	0.0017936172554592665
7.88550e-06	0.0018024768624364047
7.88575e-06	0.0018113364694134829
7.88600e-06	0.0018201960763906213
7.88625e-06	0.0018290556833677595
7.88650e-06	0.0018379152903448377
7.88675e-06	0.001846774897321976
7.88700e-06	0.0018541978784385978
7.88725e-06	0.0018596762541333788
7.88750e-06	0.0018651546298281967
7.88775e-06	0.0018706330055230148
7.88800e-06	0.0018761113812177956
7.88825e-06	0.0018815897569126135
7.88850e-06	0.0018870681326074315
7.88875e-06	0.0018925465083022123
7.88900e-06	0.0018980248839970302
7.88925e-06	0.0019035032596918483
7.88950e-06	0.0019089816353866662
7.88975e-06	0.0019144600110814472
7.89000e-06	0.001919938386776265
7.89025e-06	0.001925416762471083
7.89050e-06	0.001930895138165864
7.89075e-06	0.0019363735138606818
7.89100e-06	0.0019418518895554999
7.89125e-06	0.0019473302652502807
7.89150e-06	0.0019511948227466489
7.89175e-06	0.001952874928671259
7.89200e-06	0.0019545550345958576
7.89225e-06	0.001956235140520468
7.89250e-06	0.001957915246445078
7.89275e-06	0.0019595953523696766
7.89300e-06	0.0019557961475546006
7.89325e-06	0.0019445801909833739
7.89350e-06	0.001933364234412223
7.89375e-06	0.0019221482778409961
7.89400e-06	0.0019109323212697694
7.89425e-06	0.0018997163646986186
7.89450e-06	0.0018830807000956593
7.89475e-06	0.0018591089614914515
7.89500e-06	0.0018351372228874062
7.89525e-06	0.0018072831798763335
7.89550e-06	0.001774174080272144
7.89575e-06	0.001741064980668179
7.89600e-06	0.0017048214546189165
7.89625e-06	0.0016643351936807688
7.89650e-06	0.0016238489327428955
7.89675e-06	0.0015802977900961118
7.89700e-06	0.0015325980477664946
7.89725e-06	0.0014848983054372004
