Time(s)	Current(A)
1.12500e-05	0.0032790647221183134
1.12503e-05	0.0032896978880664063
1.12505e-05	0.003300331054014427
1.12508e-05	0.003310986532266361
1.12510e-05	0.0033220869064699244
1.12513e-05	0.003335007177808998
1.12515e-05	0.0033479274491481593
1.12518e-05	0.00336084772048732
1.12520e-05	0.0033737679918263938
1.12523e-05	0.003386688263165555
1.12525e-05	0.003399608534504716
1.12527e-05	0.0034125288058437894
1.12530e-05	0.0034254490771829503
1.12533e-05	0.0034383693485221115
1.12535e-05	0.003451289619861185
1.12538e-05	0.003464209891200346
1.12540e-05	0.003477130162539507
1.12542e-05	0.0034900504338785804
1.12545e-05	0.003502939016592578
1.12548e-05	0.003515377860683704
1.12550e-05	0.00352781670477483
1.12553e-05	0.0035402555488658716
1.12555e-05	0.0035526943929569976
1.12558e-05	0.003565133237048123
1.12560e-05	0.003577572081139165
1.12563e-05	0.003590010925230291
1.12565e-05	0.0036024497693214167
1.12568e-05	0.0036148886134124585
1.12570e-05	0.003627327457503584
1.12573e-05	0.00363976630159471
1.12575e-05	0.0036522051456857516
1.12578e-05	0.0036646439897768776
1.12580e-05	0.0036760990519398564
1.12583e-05	0.0036735918570632
1.12585e-05	0.0036710846621865263
1.12588e-05	0.003668577467309853
1.12590e-05	0.0036660702724331962
1.12593e-05	0.0036635630775565227
1.12595e-05	0.003661055882679849
1.12598e-05	0.0036585486878031926
1.12600e-05	0.003656041492926519
1.12603e-05	0.0036535342980498456
1.12605e-05	0.003651027103173189
1.12608e-05	0.0036485199082965155
1.12610e-05	0.003646012713419842
1.12612e-05	0.003628853827763707
1.12615e-05	0.003600452121395945
1.12618e-05	0.003572050415028183
1.12620e-05	0.0035436487086606136
1.12623e-05	0.003515247002292852
1.12625e-05	0.00348684529592509
1.12627e-05	0.0034584435895575207
1.12630e-05	0.0034300418831897587
1.12633e-05	0.0034016401768219968
1.12635e-05	0.003373238470454235
1.12638e-05	0.0033448367640866654
1.12640e-05	0.003316435057718904
1.12643e-05	0.0032872941074390915
1.12645e-05	0.0032476614890120836
1.12648e-05	0.003208028870584807
1.12650e-05	0.0031683962521575305
1.12653e-05	0.003128763633730522
1.12655e-05	0.003089131015303246
1.12658e-05	0.003049498396875969
1.12660e-05	0.003009865778448961
1.12663e-05	0.0029726430322448393
1.12665e-05	0.0029372694761276223
1.12668e-05	0.0029018959200106456
1.12670e-05	0.0028665223638934287
1.12673e-05	0.002831148807776212
1.12675e-05	0.002795775251659235
1.12678e-05	0.002760401695542018
1.12680e-05	0.0027260154308212767
1.12683e-05	0.002705641231040982
1.12685e-05	0.0026852670312605487
1.12688e-05	0.0026648928314801155
1.12690e-05	0.0026445186316998207
1.12693e-05	0.0026241444319193875
1.12695e-05	0.0026037702321389544
1.12697e-05	0.0025833960323586595
1.12700e-05	0.0025630218325782264
1.12703e-05	0.002542647632797793
1.12705e-05	0.0025222734330174984
1.12708e-05	0.002501899233237065
1.12710e-05	0.0024881980236534885
1.12712e-05	0.002479617262866184
1.12715e-05	0.0024710365020788215
1.12718e-05	0.0024624557412914585
1.12720e-05	0.002453874980504096
1.12723e-05	0.0024452942197167914
1.12725e-05	0.002436713458929429
1.12728e-05	0.0024281326981420662
1.12730e-05	0.0024195519373547618
1.12733e-05	0.002410971176567399
1.12735e-05	0.0024023904157800366
1.12738e-05	0.0023942404750948868
1.12740e-05	0.0023922049189529404
1.12743e-05	0.0023901693628109945
1.12745e-05	0.002388133806669062
1.12748e-05	0.002386098250527116
1.12750e-05	0.0023840626943851697
1.12753e-05	0.0023820271382432377
1.12755e-05	0.0023799915821012914
1.12758e-05	0.0023779560259593454
1.12760e-05	0.002375920469817413
1.12763e-05	0.002373884913675467
1.12765e-05	0.0023718493575335207
1.12768e-05	0.0023698138013915886
1.12770e-05	0.0023677782452496423
1.12773e-05	0.0023657426891076964
1.12775e-05	0.002363707132965764
1.12778e-05	0.002361671576823818
1.12780e-05	0.002359946265223156
1.12782e-05	0.0023626240778476435
1.12785e-05	0.0023653018904721494
1.12788e-05	0.0023679797030966548
1.12790e-05	0.0023706575157211424
1.12793e-05	0.0023733353283456483
1.12795e-05	0.002376013140970154
1.12797e-05	0.0023786909535946413
1.12800e-05	0.002381368766219147
1.12803e-05	0.002384046578843653
1.12805e-05	0.002386724391468159
1.12808e-05	0.002389402204092646
1.12810e-05	0.002392080016717152
1.12813e-05	0.002394757829341658
1.12815e-05	0.0023974356419661455
1.12818e-05	0.002400113454590651
1.12820e-05	0.0024027912672151567
1.12823e-05	0.002405859358681027
1.12825e-05	0.002414466455651108
1.12828e-05	0.0024230735526211892
1.12830e-05	0.0024316806495912123
1.12833e-05	0.002440287746561294
1.12835e-05	0.002448894843531375
1.12838e-05	0.002457501940501398
1.12840e-05	0.0024661090374714792
1.12843e-05	0.002474716134441561
1.12845e-05	0.002483323231411584
1.12848e-05	0.002491930328381665
1.12850e-05	0.0025005374253517466
1.12853e-05	0.0025091445223217696
1.12855e-05	0.002517572789116163
1.12858e-05	0.002525863832457323
1.12860e-05	0.0025341548757984262
1.12863e-05	0.002542445919139586
1.12865e-05	0.0025507369624807458
1.12867e-05	0.0025590280058218496
1.12870e-05	0.0025673190491630094
1.12873e-05	0.002575610092504169
1.12875e-05	0.002583901135845273
1.12878e-05	0.0025921921791864327
1.12880e-05	0.0026004832225275925
1.12882e-05	0.0026087742658686963
1.12885e-05	0.00261678804070283
1.12888e-05	0.002620866701395319
1.12890e-05	0.0026249453620878077
1.12893e-05	0.0026290240227802688
1.12895e-05	0.0026331026834727576
1.12898e-05	0.0026371813441652464
1.12900e-05	0.0026412600048577074
1.12903e-05	0.0026453386655501962
1.12905e-05	0.002649417326242685
1.12908e-05	0.002653495986935146
1.12910e-05	0.002657574647627635
1.12913e-05	0.0026616533083201237
1.12915e-05	0.0026657319690125848
1.12918e-05	0.0026698106297050736
1.12920e-05	0.0026738892903975624
1.12923e-05	0.0026779679510900234
1.12925e-05	0.0026820466117825122
1.12928e-05	0.002686125272475001
1.12930e-05	0.002690203933167462
1.12933e-05	0.002694282593859951
1.12935e-05	0.0026983612545524397
1.12938e-05	0.002702294186394219
1.12940e-05	0.002704158871583376
1.12943e-05	0.002706023556772533
1.12945e-05	0.0027078882419616776
1.12948e-05	0.002709752927150834
1.12950e-05	0.002711617612339991
1.12952e-05	0.0027134822975291356
1.12955e-05	0.002715346982718292
1.12958e-05	0.002717211667907449
1.12960e-05	0.0027190763530965936
1.12963e-05	0.0027209410382857506
1.12965e-05	0.002722805723474907
1.12967e-05	0.0027246704086640516
1.12970e-05	0.0027265350938532086
1.12973e-05	0.0027283997790423656
1.12975e-05	0.002730264464231522
1.12978e-05	0.0027321291494206666
1.12980e-05	0.0027339938346098236
1.12983e-05	0.0027358585197989806
1.12985e-05	0.0027377232049881246
1.12988e-05	0.0027395878901772816
1.12990e-05	0.002740715295229659
1.12993e-05	0.002731378902834519
1.12995e-05	0.0027220425104393154
1.12998e-05	0.002712706118044112
1.13000e-05	0.002703369725648971
1.13003e-05	0.0026940333332537677
1.13005e-05	0.002684696940858564
1.13008e-05	0.002675360548463424
1.13010e-05	0.0026660241560682203
1.13013e-05	0.0026566877636730163
1.13015e-05	0.002647351371277876
1.13018e-05	0.0026380149788826726
1.13020e-05	0.002627804115775662
1.13023e-05	0.002605182387451161
1.13025e-05	0.002582560659126506
1.13028e-05	0.0025599389308018517
1.13030e-05	0.0025373172024773507
1.13033e-05	0.0025146954741526962
1.13035e-05	0.0024920737458280413
1.13037e-05	0.0024694520175035403
1.13040e-05	0.002446830289178886
1.13043e-05	0.002424208560854231
1.13045e-05	0.00240158683252973
1.13048e-05	0.0023789651042050754
1.13050e-05	0.002356202595868932
1.13052e-05	0.0023314420769364732
1.13055e-05	0.002306681558003847
1.13058e-05	0.0022819210390712203
1.13060e-05	0.0022571605201385943
1.13063e-05	0.0022324000012061357
1.13065e-05	0.0022076394822735093
1.13068e-05	0.002182878963340883
1.13070e-05	0.0021581184444084242
1.13073e-05	0.0021333579254757978
1.13075e-05	0.0021085974065431718
1.13078e-05	0.002089379447175005
1.13080e-05	0.0020744145125591433
1.13083e-05	0.0020594495779432814
1.13085e-05	0.002044484643327521
1.13088e-05	0.0020295197087116593
1.13090e-05	0.0020145547740957974
1.13093e-05	0.001999589839480037
1.13095e-05	0.0019846249048641753
1.13098e-05	0.0019696599702483135
1.13100e-05	0.001954695035632553
1.13103e-05	0.0019404194211096984
1.13105e-05	0.0019359269344378384
1.13108e-05	0.0019314344477660086
1.13110e-05	0.0019269419610941487
1.13113e-05	0.0019224494744222885
1.13115e-05	0.0019179569877504589
1.13118e-05	0.0019134645010785987
1.13120e-05	0.0019089720144067385
1.13122e-05	0.0019044795277349089
1.13125e-05	0.0018999870410630487
1.13128e-05	0.0018954945543911885
1.13130e-05	0.001891002067719359
1.13133e-05	0.00188691200978126
1.13135e-05	0.0018885333938772832
1.13137e-05	0.0018901547779732954
1.13140e-05	0.0018917761620693189
1.13143e-05	0.0018933975461653421
1.13145e-05	0.0018950189302613654
1.13148e-05	0.0018966403143573776
1.13150e-05	0.0018982616984534008
1.13153e-05	0.001899883082549424
1.13155e-05	0.0019015044666454365
1.13158e-05	0.0019031258507414598
1.13160e-05	0.001904747234837483
1.13163e-05	0.0019063140061985379
1.13165e-05	0.0019071056900871266
1.13168e-05	0.0019078973739757154
1.13170e-05	0.0019086890578642987
1.13173e-05	0.0019094807417528875
1.13175e-05	0.0019102724256414762
1.13178e-05	0.0019110641095300596
1.13180e-05	0.0019118557934186483
1.13183e-05	0.001912647477307237
1.13185e-05	0.0019134391611958206
1.13188e-05	0.0019142308450844094
1.13190e-05	0.001915022528972998
1.13193e-05	0.0019158142128615815
1.13195e-05	0.0019166058967501703
1.13198e-05	0.001917397580638759
1.13200e-05	0.0019181892645273424
1.13203e-05	0.0019189809484159311
1.13205e-05	0.0019197726323045199
1.13207e-05	0.0019205643161931032
1.13210e-05	0.001921356000081692
1.13213e-05	0.0019184836930969925
1.13215e-05	0.0019127998612742312
1.13218e-05	0.0019071160294514315
1.13220e-05	0.0019014321976286318
1.13222e-05	0.0018957483658058707
1.13225e-05	0.001890064533983071
1.13228e-05	0.0018843807021602713
1.13230e-05	0.0018786968703374716
1.13233e-05	0.0018730130385147105
1.13235e-05	0.0018673292066919108
1.13238e-05	0.001861645374869111
1.13240e-05	0.0018559615430463498
1.13243e-05	0.00185027771122355
1.13245e-05	0.0018445938794007504
1.13248e-05	0.0018389100475779893
1.13250e-05	0.0018332262157551896
1.13253e-05	0.00182754238393239
1.13255e-05	0.0018218585521096286
1.13258e-05	0.001816174720286829
1.13260e-05	0.0018104919117709623
1.13263e-05	0.0018048236264681828
1.13265e-05	0.001799155341165365
1.13268e-05	0.0017934870558625473
1.13270e-05	0.0017878187705597677
1.13273e-05	0.00178215048525695
1.13275e-05	0.0017764821999541323
1.13278e-05	0.0017708139146513527
1.13280e-05	0.001765145629348535
1.13283e-05	0.0017594773440457172
1.13285e-05	0.0017538090587429377
1.13288e-05	0.00174814077344012
1.13290e-05	0.001742472488137302
1.13292e-05	0.0017368042028345226
1.13295e-05	0.0017311359175317049
1.13298e-05	0.0017255553591167608
1.13300e-05	0.0017212198585064187
1.13303e-05	0.0017168843578960473
1.13305e-05	0.001712548857285676
1.13307e-05	0.001708213356675334
1.13310e-05	0.0017038778560649625
1.13313e-05	0.001699542355454591
1.13315e-05	0.0016952068548442196
1.13318e-05	0.0016908713542338775
1.13320e-05	0.0016865358536235062
1.13323e-05	0.0016822003530131346
1.13325e-05	0.0016778648524027927
1.13328e-05	0.0016735293517924211
1.13330e-05	0.0016691938511820498
1.13333e-05	0.0016648583505717077
1.13335e-05	0.0016605135497064858
1.13338e-05	0.0016560367556157755
1.13340e-05	0.0016515599615250958
1.13343e-05	0.0016470831674343855
1.13345e-05	0.0016426063733436754
1.13348e-05	0.0016381295792529955
1.13350e-05	0.0016336527851622854
1.13353e-05	0.0016291759910715751
1.13355e-05	0.0016246991969808952
1.13358e-05	0.0016202224028901851
1.13360e-05	0.0016161971883856142
1.13363e-05	0.0016125184887243941
1.13365e-05	0.0016088397890631492
1.13368e-05	0.0016051610894019042
1.13370e-05	0.0016014823897406842
1.13373e-05	0.0015978036900794392
1.13375e-05	0.0015941249904181942
1.13377e-05	0.0015904462907569744
1.13380e-05	0.0015867675910957294
1.13383e-05	0.0015838508481959585
1.13385e-05	0.0015917481240839645
1.13388e-05	0.0015996453999720238
1.13390e-05	0.0016075426758600834
1.13392e-05	0.0016154399517480894
1.13395e-05	0.001623337227636149
1.13398e-05	0.0016312345035242085
1.13400e-05	0.001639131779412268
1.13403e-05	0.001647029055300274
1.13405e-05	0.0016549263311883334
1.13408e-05	0.001662823607076393
1.13410e-05	0.001670720882964399
1.13413e-05	0.0016801170887537065
1.13415e-05	0.0017107867537954138
1.13418e-05	0.0017414564188369135
1.13420e-05	0.0017721260838786208
1.13423e-05	0.0018027957489203281
1.13425e-05	0.0018334654139618278
1.13428e-05	0.001864135079003535
1.13430e-05	0.0018948047440452425
1.13433e-05	0.001925474409086742
1.13435e-05	0.0019561440741284494
1.13438e-05	0.001986813739170157
1.13440e-05	0.0020174834042116564
1.13443e-05	0.0020487970343520817
1.13445e-05	0.0020892500947491616
1.13448e-05	0.0021297031551459674
1.13450e-05	0.0021701562155430477
1.13453e-05	0.0022106092759401276
1.13455e-05	0.0022510623363369334
1.13458e-05	0.0022915153967340133
1.13460e-05	0.002331724747654476
1.13462e-05	0.002368475268632882
1.13465e-05	0.002405225789611537
1.13468e-05	0.0024419763105901922
1.13470e-05	0.0024787268315685984
1.13473e-05	0.0025154773525472534
1.13475e-05	0.0025522278735259085
1.13477e-05	0.0025875680770103366
1.13480e-05	0.00260289244670415
1.13483e-05	0.002618216816397963
1.13485e-05	0.002633541186091776
1.13488e-05	0.0026488655557854856
1.13490e-05	0.0026641899254792986
1.13493e-05	0.0026795142951731117
1.13495e-05	0.002694838664866821
1.13498e-05	0.002710163034560634
1.13500e-05	0.0027254874042544476
1.13503e-05	0.0027408117739481565
1.13505e-05	0.00275613614364197
1.13508e-05	0.002769359740757076
1.13510e-05	0.002752768267895502
1.13513e-05	0.002736176795033816
1.13515e-05	0.0027195853221721297
1.13518e-05	0.002702993849310556
1.13520e-05	0.0026864023764488695
1.13523e-05	0.0026698109035871833
1.13525e-05	0.0026532194307256098
1.13528e-05	0.0026366279578639235
1.13530e-05	0.0026200364850022372
1.13533e-05	0.0026034450121406633
1.13535e-05	0.002586853539278977
1.13538e-05	0.0025691927008516607
1.13540e-05	0.0025363549653628723
1.13543e-05	0.0025035172298738615
1.13545e-05	0.0024706794943848507
1.13548e-05	0.0024378417588960624
1.13550e-05	0.0024050040234070516
1.13553e-05	0.0023721662879180407
1.13555e-05	0.002339256785597565
1.13558e-05	0.0023053287374658438
1.13560e-05	0.002271400689334122
1.13562e-05	0.002237472641202631
1.13565e-05	0.002203544593070909
1.13568e-05	0.002169616544939188
1.13570e-05	0.002135688496807467
1.13573e-05	0.002102644112455623
1.13575e-05	0.0020821410653779934
1.13578e-05	0.002061638018300364
1.13580e-05	0.002041134971222874
1.13583e-05	0.0020206319241452444
1.13585e-05	0.0020001288770676155
1.13588e-05	0.001979625829990125
1.13590e-05	0.001959122782912496
1.13593e-05	0.0019386197358348665
1.13595e-05	0.001918116688757376
1.13598e-05	0.001897613641679747
1.13600e-05	0.0018771105946021175
1.13603e-05	0.0018578490254086031
1.13605e-05	0.0018562070455018932
1.13608e-05	0.0018545650655951834
1.13610e-05	0.0018529230856884848
1.13613e-05	0.0018512811057817748
1.13615e-05	0.001849639125875065
1.13618e-05	0.0018479971459683662
1.13620e-05	0.0018463551660616564
1.13623e-05	0.0018447131861549465
1.13625e-05	0.0018430712062482478
1.13628e-05	0.0018414292263415379
1.13630e-05	0.0018397872464348281
1.13633e-05	0.001838837669341455
1.13635e-05	0.0018477149714475108
1.13638e-05	0.0018565922735535667
1.13640e-05	0.0018654695756595626
1.13643e-05	0.0018743468777656185
1.13645e-05	0.0018832241798716744
1.13647e-05	0.0018921014819776702
1.13650e-05	0.0019009787840837261
1.13653e-05	0.0019098560861897822
1.13655e-05	0.0019188518147580265
1.13658e-05	0.0019295283027278096
1.13660e-05	0.0019402047906976652
1.13663e-05	0.0019508812786675205
1.13665e-05	0.0019615577666373036
1.13668e-05	0.001972234254607159
1.13670e-05	0.0019829107425770147
1.13673e-05	0.0019935872305467976
1.13675e-05	0.0020042637185166533
1.13678e-05	0.002014455649742062
1.13680e-05	0.002017770542769544
1.13683e-05	0.0020210854357970488
1.13685e-05	0.0020244003288245535
1.13688e-05	0.0020277152218520357
1.13690e-05	0.0020310301148795404
1.13693e-05	0.002034345007907045
1.13695e-05	0.0020376599009345273
1.13698e-05	0.0020409747939620316
1.13700e-05	0.0020442896869895364
1.13703e-05	0.0020476045800170185
1.13705e-05	0.0020509194730445233
1.13708e-05	0.002054234366072028
1.13710e-05	0.00205754925909951
1.13713e-05	0.0020601605602249525
1.13715e-05	0.002052786181771537
1.13718e-05	0.002045411803318172
1.13720e-05	0.002038037424864757
1.13723e-05	0.002030663046411342
1.13725e-05	0.002023288667957977
1.13728e-05	0.0020159142895045615
1.13730e-05	0.0020085399110511466
1.13732e-05	0.0020011655325977815
1.13735e-05	0.001993791154144366
1.13738e-05	0.001986416775690951
1.13740e-05	0.001979042397237536
1.13743e-05	0.001971668018784171
1.13745e-05	0.0019642936403307556
1.13748e-05	0.0019568076894675534
1.13750e-05	0.001947738254867664
1.13753e-05	0.0019386688202677129
1.13755e-05	0.001929599385667762
1.13758e-05	0.0019205299510678725
1.13760e-05	0.0019114605164679216
1.13763e-05	0.0019023910818679708
1.13765e-05	0.0018933216472680813
1.13768e-05	0.0018842522126681304
1.13770e-05	0.0018751827780681795
1.13773e-05	0.00186611334346829
1.13775e-05	0.0018570439088683392
1.13778e-05	0.0018479744742683883
1.13780e-05	0.0018389050396684988
1.13783e-05	0.001829835605068548
1.13785e-05	0.0018207661704685968
1.13788e-05	0.0018116967358687076
1.13790e-05	0.0018026273012687567
1.13793e-05	0.0017935578666688056
1.13795e-05	0.001784488432068916
1.13798e-05	0.0017758512705727007
1.13800e-05	0.0017733491153153118
1.13803e-05	0.0017708469600579398
1.13805e-05	0.0017683448048005509
1.13808e-05	0.0017658426495431618
1.13810e-05	0.0017633404942857898
1.13813e-05	0.0017608383390284009
1.13815e-05	0.001758336183771012
1.13817e-05	0.00175583402851364
1.13820e-05	0.001753331873256251
1.13823e-05	0.0017508297179988622
1.13825e-05	0.0017483275627414902
1.13828e-05	0.001745825407484101
1.13830e-05	0.0017433232522267121
1.13833e-05	0.0017408210969693232
1.13835e-05	0.0017383189417119512
1.13838e-05	0.0017358167864545623
1.13840e-05	0.0017333146311971734
1.13843e-05	0.0017308124759398014
1.13845e-05	0.0017283103206824123
1.13848e-05	0.0017259573382466642
1.13850e-05	0.001725721480804644
1.13853e-05	0.0017254856233626227
1.13855e-05	0.0017252497659206011
1.13858e-05	0.001725013908478581
1.13860e-05	0.0017247780510365595
1.13863e-05	0.001724542193594538
1.13865e-05	0.001724306336152518
1.13868e-05	0.0017240704787104964
1.13870e-05	0.001723921524158179
1.13873e-05	0.0017250059328809914
1.13875e-05	0.0017260903416038108
1.13878e-05	0.0017271747503266304
1.13880e-05	0.0017282591590494425
1.13883e-05	0.001729343567772262
1.13885e-05	0.0017304279764950815
1.13888e-05	0.0017315123852178938
1.13890e-05	0.0017325967939407132
1.13893e-05	0.0017345051036223114
1.13895e-05	0.0017481065709016792
1.13898e-05	0.0017617080381811393
1.13900e-05	0.0017753095054605992
1.13902e-05	0.001788910972739967
1.13905e-05	0.0018025124400194272
1.13908e-05	0.0018161139072988871
1.13910e-05	0.001829715374578255
1.13913e-05	0.001843316841857715
1.13915e-05	0.001856918309137175
1.13918e-05	0.001870519776416635
1.13920e-05	0.0018930012169879997
1.13923e-05	0.001922296611628593
1.13925e-05	0.0019515920062691864
1.13928e-05	0.0019808874009095813
1.13930e-05	0.0020101827955501745
1.13933e-05	0.0020394781901907676
1.13935e-05	0.0020687735848311625
1.13938e-05	0.0020980689794717557
1.13940e-05	0.0021273643741123493
1.13943e-05	0.0021566597687527438
1.13945e-05	0.002186325970073549
1.13948e-05	0.0022212548196613867
1.13950e-05	0.002256183669248988
1.13953e-05	0.002291112518836826
1.13955e-05	0.0023260413684246637
1.13958e-05	0.002360970218012265
1.13960e-05	0.0023958990676001025
1.13963e-05	0.0024308279171879406
1.13965e-05	0.0024625631248693155
1.13968e-05	0.002491847725037782
1.13970e-05	0.002521132325206249
1.13973e-05	0.002550416925374517
1.13975e-05	0.0025797015255429835
1.13978e-05	0.00260898612571145
1.13980e-05	0.002638270725879718
1.13983e-05	0.002666122624241542
