Time(s)	Current(A)
7.50000e-07	-0.013829511283367435
7.50250e-07	-0.013852194432714373
7.50500e-07	-0.013874877582061311
7.50750e-07	-0.01389756073140825
7.51000e-07	-0.013920243880755188
7.51250e-07	-0.013938414824987122
7.51500e-07	-0.013953116902284726
7.51750e-07	-0.013967818979582328
7.52000e-07	-0.013982521056879933
7.52250e-07	-0.013997223134177535
7.52500e-07	-0.014011925211475132
7.52750e-07	-0.014026627288772736
7.53000e-07	-0.014041329366070339
7.53250e-07	-0.014056031443367943
7.53500e-07	-0.014070733520665546
7.53750e-07	-0.01408543559796315
7.54000e-07	-0.014100137675260747
7.54250e-07	-0.01411483975255835
7.54500e-07	-0.014129541829855954
7.54750e-07	-0.014144243907153558
7.55000e-07	-0.01415894598445116
7.55250e-07	-0.014173648061748765
7.55500e-07	-0.014186812706743032
7.55750e-07	-0.014198795413428894
7.56000e-07	-0.014210778120114754
7.56250e-07	-0.014221427989709018
7.56500e-07	-0.014231053208517669
7.56750e-07	-0.014240678427326316
7.57000e-07	-0.014247715723707316
7.57250e-07	-0.014252763492061732
7.57500e-07	-0.014257811260416147
7.57750e-07	-0.014262859028770563
7.58000e-07	-0.01426790679712498
7.58250e-07	-0.014272954565479393
7.58500e-07	-0.01427800233383381
7.58750e-07	-0.014279342990753136
7.59000e-07	-0.01427783371599793
7.59250e-07	-0.014276324441242725
7.59500e-07	-0.01427481516648752
7.59750e-07	-0.014273305891732315
7.60000e-07	-0.014271796616977108
7.60250e-07	-0.014270287342221903
7.60500e-07	-0.014266453036737485
7.60750e-07	-0.014260831307584942
7.61000e-07	-0.0142552095784324
7.61250e-07	-0.014249479458234736
7.61500e-07	-0.01424219944271505
7.61750e-07	-0.014234919427195363
7.62000e-07	-0.014227639411675675
7.62250e-07	-0.014219968631528416
7.62500e-07	-0.014211981119008978
7.62750e-07	-0.014203981058093031
7.63000e-07	-0.014195980997177084
7.63250e-07	-0.01418798093626114
7.63500e-07	-0.014179980875345192
7.63750e-07	-0.014171980814429245
7.64000e-07	-0.014164169782272841
7.64250e-07	-0.014159061692871669
7.64500e-07	-0.014153953603470496
7.64750e-07	-0.014148845514069324
7.65000e-07	-0.014143737424668153
7.65250e-07	-0.014138629335266982
7.65500e-07	-0.01413352124586581
7.65750e-07	-0.014132570318057789
7.66000e-07	-0.01413481530888022
7.66250e-07	-0.014137060299702651
7.66500e-07	-0.014139305290525083
7.66750e-07	-0.014141550281347512
7.67000e-07	-0.014143795272169944
7.67250e-07	-0.014146040262992375
7.67500e-07	-0.014148285253814806
7.67750e-07	-0.014150530244637237
7.68000e-07	-0.014152775235459669
7.68250e-07	-0.0141550202262821
7.68500e-07	-0.014157265217104531
7.68750e-07	-0.014159510207926962
7.69000e-07	-0.014161755198749394
7.69250e-07	-0.014164000189571825
7.69500e-07	-0.014166245180394254
7.69750e-07	-0.014168490171216686
7.70000e-07	-0.014170735162039117
7.70250e-07	-0.014173297551478739
7.70500e-07	-0.014180398458205215
7.70750e-07	-0.014187499364931692
7.71000e-07	-0.014194600271658165
7.71250e-07	-0.014201701178384641
7.71500e-07	-0.014208802085111117
7.71750e-07	-0.014215902991837594
7.72000e-07	-0.01422300389856407
7.72250e-07	-0.014230104805290543
7.72500e-07	-0.01423720571201702
7.72750e-07	-0.014244306618743496
7.73000e-07	-0.014251407525469972
7.73250e-07	-0.014258508432196448
7.73500e-07	-0.014265609338922925
7.73750e-07	-0.014272710245649398
7.74000e-07	-0.014279811152375874
7.74250e-07	-0.01428691205910235
7.74500e-07	-0.014294012965828827
7.74750e-07	-0.014301113872555303
7.75000e-07	-0.01430886055383757
7.75250e-07	-0.014317103689945487
7.75500e-07	-0.01432543159828349
7.75750e-07	-0.014333434514453316
7.76000e-07	-0.01434113748346796
7.76250e-07	-0.014346829613062238
7.76500e-07	-0.014350975861164425
7.76750e-07	-0.014352808248613878
7.77000e-07	-0.014352861799661918
7.77250e-07	-0.014350896086720145
7.77500e-07	-0.014347378015694535
7.77750e-07	-0.014341140651611455
7.78000e-07	-0.014332812765149246
7.78250e-07	-0.014324484878687035
7.78500e-07	-0.014310592851304975
7.78750e-07	-0.014292423255868358
7.79000e-07	-0.014274253660431741
7.79250e-07	-0.014256084064995123
7.79500e-07	-0.014237914469558514
7.79750e-07	-0.014219076186502711
7.80000e-07	-0.014190676266581012
7.80250e-07	-0.01416227634665931
7.80500e-07	-0.01413387642673761
7.80750e-07	-0.014105476506815921
7.81000e-07	-0.014077076586894222
7.81250e-07	-0.014044933182413292
7.81500e-07	-0.01400991188353788
7.81750e-07	-0.01397489058466247
7.82000e-07	-0.013939869285787058
7.82250e-07	-0.013904847986911661
7.82500e-07	-0.01386982668803625
7.82750e-07	-0.0138345731869654
7.83000e-07	-0.013799141174834583
7.83250e-07	-0.013763709162703766
7.83500e-07	-0.01372827715057295
7.83750e-07	-0.013692845138442149
7.84000e-07	-0.013657413126311331
7.84250e-07	-0.013624612651306213
7.84500e-07	-0.013593835234182896
7.84750e-07	-0.013563057817059578
7.85000e-07	-0.013541591810183181
7.85250e-07	-0.013527284175387767
7.85500e-07	-0.013512976540592355
7.85750e-07	-0.013498668905796941
7.86000e-07	-0.013484361271001527
7.86250e-07	-0.013470053636206115
7.86500e-07	-0.013455746001410708
7.86750e-07	-0.013441438366615294
7.87000e-07	-0.013427130731819881
7.87250e-07	-0.013412823097024467
7.87500e-07	-0.013398515462229053
7.87750e-07	-0.013384207827433646
7.88000e-07	-0.013369900192638234
7.88250e-07	-0.01335559255784282
7.88500e-07	-0.013341284923047408
7.88750e-07	-0.013326977288251994
7.89000e-07	-0.01331266965345658
7.89250e-07	-0.013305993873292217
7.89500e-07	-0.013305185266162726
7.89750e-07	-0.013304376659033237
7.90000e-07	-0.013303568051903747
7.90250e-07	-0.013302759444774258
7.90500e-07	-0.013301950837644768
7.90750e-07	-0.013301142230515279
7.91000e-07	-0.013300333623385788
7.91250e-07	-0.0132995250162563
7.91500e-07	-0.01329871640912681
7.91750e-07	-0.01329790780199732
7.92000e-07	-0.01329709919486783
7.92250e-07	-0.013296290587738341
7.92500e-07	-0.01329548198060885
7.92750e-07	-0.013294673373479362
7.93000e-07	-0.013293864766349871
7.93250e-07	-0.013293056159220383
7.93500e-07	-0.013295365195706732
7.93750e-07	-0.013300070996209121
7.94000e-07	-0.01330477679671151
7.94250e-07	-0.013309482597213899
7.94500e-07	-0.013314188397716286
7.94750e-07	-0.013318894198218675
7.95000e-07	-0.013323599998721063
7.95250e-07	-0.013328305799223452
7.95500e-07	-0.013333011599725839
7.95750e-07	-0.013337717400228228
7.96000e-07	-0.013342423200730617
7.96250e-07	-0.013347129001233004
7.96500e-07	-0.013351834801735392
7.96750e-07	-0.013356876042194734
7.97000e-07	-0.01336671377501754
7.97250e-07	-0.013376551507840347
7.97500e-07	-0.013386389240663153
7.97750e-07	-0.013396226973485956
7.98000e-07	-0.013406064706308762
7.98250e-07	-0.01341590243913157
7.98500e-07	-0.013425740171954376
7.98750e-07	-0.013435577904777183
7.99000e-07	-0.013445415637599989
7.99250e-07	-0.013455253370422792
7.99500e-07	-0.013465091103245598
7.99750e-07	-0.013474928836068404
8.00000e-07	-0.01348476656889121
8.00250e-07	-0.01349663505198021
8.00500e-07	-0.013510064723506158
8.00750e-07	-0.013523494395032113
8.01000e-07	-0.013536924066558069
8.01250e-07	-0.013550353738084024
8.01500e-07	-0.013563783409609979
8.01750e-07	-0.013577213081135934
8.02000e-07	-0.013590642752661884
8.02250e-07	-0.01360407242418784
8.02500e-07	-0.013617502095713795
8.02750e-07	-0.013631252585375076
8.03000e-07	-0.013645249711745746
8.03250e-07	-0.013659246838116413
8.03500e-07	-0.013673243964487077
8.03750e-07	-0.013687241090857744
8.04000e-07	-0.013701238217228413
8.04250e-07	-0.01371523534359908
8.04500e-07	-0.01372923246996975
8.04750e-07	-0.013743229596340412
8.05000e-07	-0.013757226722711081
8.05250e-07	-0.013770712951598232
8.05500e-07	-0.01378380641567475
8.05750e-07	-0.013796949637364577
8.06000e-07	-0.013810131111424397
8.06250e-07	-0.013824600491538712
8.06500e-07	-0.013840059980616042
8.06750e-07	-0.013857028783963702
8.07000e-07	-0.013875157909201167
8.07250e-07	-0.013894859094200167
8.07500e-07	-0.013915768838204567
8.07750e-07	-0.013936678582208976
8.08000e-07	-0.013959945450540438
8.08250e-07	-0.013985024415270542
8.08500e-07	-0.014010103380000647
8.08750e-07	-0.014037865745612086
8.09000e-07	-0.014067691040623276
8.09250e-07	-0.014097516335634478
8.09500e-07	-0.014129408107326746
8.09750e-07	-0.014162888533002457
8.10000e-07	-0.014196368958678167
8.10250e-07	-0.014231927093794207
8.10500e-07	-0.014269082518349335
8.10750e-07	-0.014306237942904478
8.11000e-07	-0.014344570525528238
8.11250e-07	-0.014384221933893538
8.11500e-07	-0.014424505320040281
8.11750e-07	-0.014465272692136754
8.12000e-07	-0.014506464138584235
8.12250e-07	-0.014548074558441686
8.12500e-07	-0.014590028900616872
8.12750e-07	-0.014632159517671023
8.13000e-07	-0.014674269778792288
8.13250e-07	-0.014716163823201605
8.13500e-07	-0.01475764542487414
8.13750e-07	-0.014798536098705318
8.14000e-07	-0.014838715107840433
8.14250e-07	-0.0148780933283507
8.14500e-07	-0.014916538825634724
8.14750e-07	-0.014953862939746605
8.15000e-07	-0.014989857985752232
8.15250e-07	-0.015023797377892964
8.15500e-07	-0.015056630689599745
8.15750e-07	-0.015087276772463366
8.16000e-07	-0.015116241370195183
8.16250e-07	-0.015143090084656372
8.16500e-07	-0.015168312162622108
8.16750e-07	-0.015191380710022481
8.17000e-07	-0.01521279367865804
8.17250e-07	-0.015231910688850991
8.17500e-07	-0.015249262625399933
8.17750e-07	-0.015263703785448373
8.18000e-07	-0.015275907215584418
8.18250e-07	-0.015288110645720462
8.18500e-07	-0.015297168552238545
8.18750e-07	-0.015303808261313835
8.19000e-07	-0.015310447970389125
8.19250e-07	-0.015313677791102032
8.19500e-07	-0.0153142861775739
8.19750e-07	-0.015314894564045767
8.20000e-07	-0.015315502950517635
8.20250e-07	-0.015312910658768435
8.20500e-07	-0.015307857768139858
8.20750e-07	-0.015302804877511282
8.21000e-07	-0.015297751986882706
8.21250e-07	-0.015290859117632945
8.21500e-07	-0.015282551720267375
8.21750e-07	-0.015273499275041177
8.22000e-07	-0.01526347757493284
8.22250e-07	-0.015252845153047393
8.22500e-07	-0.015241748506942316
8.22750e-07	-0.015230314658608461
8.23000e-07	-0.015218664275193547
8.23250e-07	-0.015206917375561095
8.23500e-07	-0.015195194222071828
8.23750e-07	-0.015183620098945175
8.24000e-07	-0.015172339851299742
8.24250e-07	-0.015161516664542133
8.24500e-07	-0.015151309752166334
8.24750e-07	-0.01514186553264749
8.25000e-07	-0.015133640172032297
8.25250e-07	-0.015126076435742557
8.25500e-07	-0.0151195333886951
8.25750e-07	-0.015114446354094205
8.26000e-07	-0.015110271904197678
8.26250e-07	-0.015106402258900151
8.26500e-07	-0.015102537878958528
8.26750e-07	-0.015098677546886747
8.27000e-07	-0.015095013349322447
8.27250e-07	-0.015091499934909712
8.27500e-07	-0.0150884085387728
8.27750e-07	-0.015085641579403617
8.28000e-07	-0.015082884448698793
8.28250e-07	-0.01508013487401767
8.28500e-07	-0.015077385299336546
8.28750e-07	-0.01507434115724449
8.29000e-07	-0.015071070559323012
8.29250e-07	-0.015067799961401535
8.29500e-07	-0.015064529363480057
8.29750e-07	-0.015061241707226048
8.30000e-07	-0.015057710132023106
8.30250e-07	-0.015054178556820166
8.30500e-07	-0.015050646981617224
8.30750e-07	-0.015047115406414282
8.31000e-07	-0.015043387608947929
8.31250e-07	-0.015039508960865514
8.31500e-07	-0.015035630312783101
8.31750e-07	-0.015031905628638898
8.32000e-07	-0.015028299308000075
8.32250e-07	-0.015024279333295367
8.32500e-07	-0.015020116211819473
8.32750e-07	-0.01501595309034358
8.33000e-07	-0.015011789968867689
8.33250e-07	-0.015006367834442
8.33500e-07	-0.014999650478629702
8.33750e-07	-0.014992933122817406
8.34000e-07	-0.014986215767005108
8.34250e-07	-0.01497962684301083
8.34500e-07	-0.014973535030728593
8.34750e-07	-0.014967774860576235
8.35000e-07	-0.01496197768074709
8.35250e-07	-0.014955663767486058
8.35500e-07	-0.01494908846318348
8.35750e-07	-0.014942973788974198
8.36000e-07	-0.014937682396090456
8.36250e-07	-0.014933301945884226
8.36500e-07	-0.014929870513381531
8.36750e-07	-0.014927336744485827
8.37000e-07	-0.014925466379793154
8.37250e-07	-0.014923923178287017
8.37500e-07	-0.014922722827588414
8.37750e-07	-0.014922591045444106
8.38000e-07	-0.01492307426819606
8.38250e-07	-0.014925474286470845
8.38500e-07	-0.014927874304745629
8.38750e-07	-0.01493139325412834
8.39000e-07	-0.014938399593857172
8.39250e-07	-0.014945405933586004
8.39500e-07	-0.014952412273314836
8.39750e-07	-0.014959418613043668
8.40000e-07	-0.014966424952772499
8.40250e-07	-0.014973431292501331
8.40500e-07	-0.014980437632230163
8.40750e-07	-0.014987443971958996
8.41000e-07	-0.014994450311687828
8.41250e-07	-0.015002251998929485
8.41500e-07	-0.015012532558389803
8.41750e-07	-0.015022813117850125
8.42000e-07	-0.015033318851072966
8.42250e-07	-0.015044526386935889
8.42500e-07	-0.015055733922798811
8.42750e-07	-0.015066961291447918
8.43000e-07	-0.015078250473256543
8.43250e-07	-0.015089539655065175
8.43500e-07	-0.015100679676223349
8.43750e-07	-0.01511135480601445
8.44000e-07	-0.01512202993580555
8.44250e-07	-0.01513243509839309
8.44500e-07	-0.015141998849911817
8.44750e-07	-0.015151562601430543
8.45000e-07	-0.015160618995590186
8.45250e-07	-0.015168094101014908
8.45500e-07	-0.01517556920643963
8.45750e-07	-0.015182672918434876
8.46000e-07	-0.015188619102632937
8.46250e-07	-0.015194565286831
8.46500e-07	-0.015200526311684273
8.46750e-07	-0.01520653359064323
8.47000e-07	-0.015212540869602184
8.47250e-07	-0.015218548148561141
8.47500e-07	-0.015224555427520098
8.47750e-07	-0.015230562706479054
8.48000e-07	-0.01523656998543801
8.48250e-07	-0.015242577264396966
8.48500e-07	-0.015249136026439606
8.48750e-07	-0.015255885631578701
8.49000e-07	-0.015262635236717798
8.49250e-07	-0.015269384841856894
8.49500e-07	-0.01527613444699599
8.49750e-07	-0.015282884052135088
8.50000e-07	-0.01528963365727418
8.50250e-07	-0.015296650222649723
8.50500e-07	-0.015304498827231974
8.50750e-07	-0.015312347431814224
8.51000e-07	-0.015320196036396474
8.51250e-07	-0.015328044640978722
8.51500e-07	-0.015335893245560972
8.51750e-07	-0.015343741850143222
8.52000e-07	-0.015351590454725473
8.52250e-07	-0.015359339546606328
8.52500e-07	-0.015366778485671069
8.52750e-07	-0.015374217424735808
8.53000e-07	-0.01538165636380055
8.53250e-07	-0.01538909530286529
8.53500e-07	-0.015396534241930031
8.53750e-07	-0.015403973180994773
8.54000e-07	-0.015411412120059514
8.54250e-07	-0.015418521510611334
8.54500e-07	-0.015424603792081633
8.54750e-07	-0.015430686073551933
8.55000e-07	-0.015435935595270405
8.55250e-07	-0.015440896936889898
8.55500e-07	-0.015445593318518773
8.55750e-07	-0.015449463895138875
8.56000e-07	-0.015453664653714493
8.56250e-07	-0.015458894495632246
8.56500e-07	-0.015464794316214793
8.56750e-07	-0.01547278226993727
8.57000e-07	-0.015481441295767118
8.57250e-07	-0.015492191862686763
8.57500e-07	-0.015502942429606408
8.57750e-07	-0.015515185960407591
8.58000e-07	-0.015532082635437981
8.58250e-07	-0.015548979310468372
8.58500e-07	-0.015565875985498755
8.58750e-07	-0.015582772660529145
8.59000e-07	-0.015599669335559537
8.59250e-07	-0.015618600153140816
8.59500e-07	-0.015643870815100862
8.59750e-07	-0.015669141477060895
8.60000e-07	-0.015694412139020942
8.60250e-07	-0.01571968280098099
8.60500e-07	-0.015744953462941032
8.60750e-07	-0.015771684172390336
8.61000e-07	-0.01580296543502652
8.61250e-07	-0.015834246697662695
8.61500e-07	-0.01586552796029888
8.61750e-07	-0.015896809222935068
8.62000e-07	-0.015928090485571252
8.62250e-07	-0.015959371748207437
8.62500e-07	-0.015991347669194262
8.62750e-07	-0.016023563979695343
8.63000e-07	-0.016055780290196442
8.63250e-07	-0.01608799660069754
8.63500e-07	-0.01612021291119864
8.63750e-07	-0.016152429221699734
8.64000e-07	-0.016183843473212844
8.64250e-07	-0.016212757934746073
8.64500e-07	-0.016241672396279303
8.64750e-07	-0.01626955645784904
8.65000e-07	-0.016294229055495754
8.65250e-07	-0.016318901653142467
8.65500e-07	-0.016342031667237272
8.65750e-07	-0.016360353886688543
8.66000e-07	-0.01637867610613981
8.66250e-07	-0.016395017158448166
8.66500e-07	-0.016405183475672668
8.66750e-07	-0.016415349792897167
8.67000e-07	-0.016423418208556667
8.67250e-07	-0.016424948061105903
8.67500e-07	-0.016426477913655136
8.67750e-07	-0.01642495438091764
8.68000e-07	-0.016413914313786773
8.68250e-07	-0.01640287424665591
8.68500e-07	-0.016391834179525038
8.68750e-07	-0.01638079411239417
8.69000e-07	-0.0163697540452633
8.69250e-07	-0.016347846009239234
8.69500e-07	-0.016322177065769057
8.69750e-07	-0.016296508122298894
8.70000e-07	-0.016270839178828718
8.70250e-07	-0.01624517023535854
8.70500e-07	-0.01621701277652698
8.70750e-07	-0.016181099322365236
8.71000e-07	-0.0161451858682035
8.71250e-07	-0.016109272414041753
8.71500e-07	-0.016073358959880005
8.71750e-07	-0.01603339164071762
8.72000e-07	-0.015992021464110908
8.72250e-07	-0.015950651287504197
8.72500e-07	-0.015909281110897504
8.72750e-07	-0.01586752767638088
8.73000e-07	-0.01582457973585249
8.73250e-07	-0.015781663693683622
8.73500e-07	-0.015738942538487323
8.73750e-07	-0.01569666960141556
8.74000e-07	-0.01565507235140605
8.74250e-07	-0.015614381903473041
8.74500e-07	-0.015574843515889808
8.74750e-07	-0.015536718185206744
8.75000e-07	-0.015500267839296814
8.75250e-07	-0.015465754884896576
8.75500e-07	-0.015433443059714967
8.75750e-07	-0.01540362823746166
8.76000e-07	-0.01537670748557082
8.76250e-07	-0.015353098399057418
8.76500e-07	-0.015333027210761298
8.76750e-07	-0.015316542014027306
8.77000e-07	-0.015304091233541019
8.77250e-07	-0.015295736338724143
8.77500e-07	-0.015289151689746153
8.77750e-07	-0.015288084394075644
8.78000e-07	-0.01528933014422478
8.78250e-07	-0.015297785000997995
8.78500e-07	-0.015306239857771213
8.78750e-07	-0.015318100117046658
8.79000e-07	-0.015340574048359219
8.79250e-07	-0.015363047979671779
8.79500e-07	-0.01538552191098433
8.79750e-07	-0.015407995842296893
8.80000e-07	-0.0154339902213535
8.80250e-07	-0.015470956835778682
8.80500e-07	-0.015507923450203864
8.80750e-07	-0.015544890064629046
8.81000e-07	-0.015581856679054212
8.81250e-07	-0.015620807190458238
8.81500e-07	-0.015665940945069255
8.81750e-07	-0.01571107469968027
8.82000e-07	-0.015757069936227955
8.82250e-07	-0.015805750167203085
8.82500e-07	-0.015854430398178236
8.82750e-07	-0.01590336898324259
8.83000e-07	-0.01595311278459795
8.83250e-07	-0.016002856585953313
8.83500e-07	-0.016052190459454354
8.83750e-07	-0.016100246704304495
8.84000e-07	-0.016148302949154654
8.84250e-07	-0.016195535266165174
8.84500e-07	-0.016240199634198583
8.84750e-07	-0.016281676162422168
8.85000e-07	-0.01631321709970563
8.85250e-07	-0.016344758036989076
8.85500e-07	-0.01637629897427254
8.85750e-07	-0.016407839911555998
8.86000e-07	-0.01643938084883946
8.86250e-07	-0.01647092178612292
8.86500e-07	-0.016502462723406365
8.86750e-07	-0.016534003660689828
8.87000e-07	-0.016550286696732062
8.87250e-07	-0.016561289670330652
8.87500e-07	-0.016572292643929246
8.87750e-07	-0.016583295617527836
8.88000e-07	-0.016594298591126426
8.88250e-07	-0.016605301564725016
8.88500e-07	-0.01661630453832361
8.88750e-07	-0.0166273075119222
8.89000e-07	-0.016634373080838823
8.89250e-07	-0.01662916687807936
8.89500e-07	-0.0166239606753199
8.89750e-07	-0.016618754472560438
8.90000e-07	-0.016613548269800976
8.90250e-07	-0.016608342067041513
8.90500e-07	-0.016603135864282054
8.90750e-07	-0.01659792966152259
8.91000e-07	-0.016592723458763132
8.91250e-07	-0.016580403153527875
8.91500e-07	-0.016565620982488854
8.91750e-07	-0.016550838811449833
8.92000e-07	-0.01653605664041081
8.92250e-07	-0.016521274469371797
8.92500e-07	-0.016506492298332776
8.92750e-07	-0.016491710127293755
8.93000e-07	-0.016476927956254734
8.93250e-07	-0.01646158840895776
8.93500e-07	-0.01644451167822961
8.93750e-07	-0.016427434947501467
8.94000e-07	-0.016410358216773318
8.94250e-07	-0.016393588592591653
8.94500e-07	-0.016377776132258545
8.94750e-07	-0.016361963671925436
8.95000e-07	-0.016346151211592334
8.95250e-07	-0.01633085828730637
8.95500e-07	-0.016317184609265865
8.95750e-07	-0.01630341395417962
8.96000e-07	-0.016289341049195463
8.96250e-07	-0.01627526814421131
8.96500e-07	-0.016260058662218295
8.96750e-07	-0.01624130679261927
8.97000e-07	-0.016222554923020247
8.97250e-07	-0.016202883204273523
8.97500e-07	-0.01618034457708611
