Time(s)	Current(A)
1.37500e-05	0.006467927272875848
1.37503e-05	0.006482027235885221
1.37505e-05	0.006496127198894593
1.37508e-05	0.006507044162049298
1.37510e-05	0.00649796693344354
1.37513e-05	0.006488889704837784
1.37515e-05	0.006479812476232088
1.37518e-05	0.006470735247626331
1.37520e-05	0.006461658019020574
1.37523e-05	0.006452580790414878
1.37525e-05	0.0064435035618091215
1.37528e-05	0.006434426333203364
1.37530e-05	0.0064253491045976685
1.37533e-05	0.006416271875991911
1.37535e-05	0.006407194647386155
1.37538e-05	0.006398117418780459
1.37540e-05	0.006386370777919319
1.37543e-05	0.006373105140643353
1.37545e-05	0.006359839503367478
1.37548e-05	0.006346573866091512
1.37550e-05	0.006333308228815547
1.37553e-05	0.006320042591539672
1.37555e-05	0.006306776954263706
1.37558e-05	0.0062935113169877415
1.37560e-05	0.006280245679711866
1.37563e-05	0.0062669800424359
1.37565e-05	0.006253714405159936
1.37568e-05	0.006239745781828483
1.37570e-05	0.00622136131223643
1.37573e-05	0.006202976842644377
1.37575e-05	0.006184592373052324
1.37578e-05	0.006166207903460396
1.37580e-05	0.0061478234338683425
1.37583e-05	0.00612943896427629
1.37585e-05	0.0061110544946843615
1.37588e-05	0.006092670025092308
1.37590e-05	0.006074285555500256
1.37593e-05	0.006055901085908327
1.37595e-05	0.006037516616316275
1.37598e-05	0.0060100451530697915
1.37600e-05	0.005977402847156716
1.37603e-05	0.005944760541243419
1.37605e-05	0.005912118235330123
1.37608e-05	0.005879475929417047
1.37610e-05	0.00584683362350375
1.37613e-05	0.005814191317590454
1.37615e-05	0.005781549011677378
1.37618e-05	0.0057489067057640815
1.37620e-05	0.005716264399850785
1.37623e-05	0.00568362209393771
1.37625e-05	0.005648319331295852
1.37628e-05	0.005611502668271751
1.37630e-05	0.0055746860052479
1.37633e-05	0.0055378693422238
1.37635e-05	0.005501052679199699
1.37638e-05	0.005464236016175849
1.37640e-05	0.005427419353151748
1.37643e-05	0.005390602690127647
1.37645e-05	0.005353786027103797
1.37648e-05	0.0053169693640796965
1.37650e-05	0.005280152701055596
1.37653e-05	0.005252365449595608
1.37655e-05	0.00522971627441859
1.37658e-05	0.0052070670992415725
1.37660e-05	0.005184417924064554
1.37663e-05	0.00516176874888769
1.37665e-05	0.005139119573710672
1.37668e-05	0.0051164703985336546
1.37670e-05	0.00509382122335679
1.37673e-05	0.005071172048179772
1.37675e-05	0.005048522873002754
1.37678e-05	0.00502587369782589
1.37680e-05	0.005003224522648873
1.37683e-05	0.004980575347471854
1.37685e-05	0.00495792617229499
1.37688e-05	0.004935276997117972
1.37690e-05	0.004919974824500826
1.37693e-05	0.004908853373887959
1.37695e-05	0.004897731923275016
1.37698e-05	0.004886610472662074
1.37700e-05	0.004875489022049207
1.37703e-05	0.004864367571436264
1.37705e-05	0.004853246120823322
1.37708e-05	0.0048421246702104554
1.37710e-05	0.004831003219597513
1.37713e-05	0.00481988176898457
1.37715e-05	0.004808760318371704
1.37718e-05	0.0047976388677587615
1.37720e-05	0.0047865174171458184
1.37723e-05	0.004775395966532952
1.37725e-05	0.00476427451592001
1.37728e-05	0.004755663710962409
1.37730e-05	0.00474848155822759
1.37733e-05	0.004741299405492722
1.37735e-05	0.004734117252757854
1.37738e-05	0.004726935100023035
1.37740e-05	0.004719752947288167
1.37743e-05	0.004712570794553299
1.37745e-05	0.004705388641818431
1.37748e-05	0.004698206489083612
1.37750e-05	0.004693331943929787
1.37753e-05	0.004689770514664311
1.37755e-05	0.004686209085398861
1.37758e-05	0.004682647656133385
1.37760e-05	0.00467908622686791
1.37763e-05	0.004675524797602458
1.37765e-05	0.004671963368336984
1.37768e-05	0.004668401939071508
1.37770e-05	0.004664840509806057
1.37773e-05	0.00467539366097157
1.37775e-05	0.004693978541610787
1.37778e-05	0.0047125634222498795
1.37780e-05	0.004731148302889097
1.37783e-05	0.004749733183528315
1.37785e-05	0.004768318064167406
1.37788e-05	0.004786902944806624
1.37790e-05	0.004805487825445842
1.37793e-05	0.004824072706084934
1.37795e-05	0.004842657586724151
1.37798e-05	0.004861242467363369
1.37800e-05	0.004897634288224268
1.37803e-05	0.004944158930767656
1.37805e-05	0.004990683573311044
1.37808e-05	0.005037208215854116
1.37810e-05	0.005083732858397505
1.37813e-05	0.005130257500940892
1.37815e-05	0.005176782143483965
1.37818e-05	0.005223306786027353
1.37820e-05	0.0052698314285707405
1.37823e-05	0.005316356071113813
1.37825e-05	0.0053628807136572015
1.37828e-05	0.005415232791456055
1.37830e-05	0.005470900900059588
1.37833e-05	0.005526569008662744
1.37835e-05	0.005582237117266279
1.37838e-05	0.005637905225869812
1.37840e-05	0.005693573334472968
1.37843e-05	0.005749241443076502
1.37845e-05	0.0058049095516800354
1.37848e-05	0.005858741994120699
1.37850e-05	0.005901043596782308
1.37853e-05	0.005943345199443918
1.37855e-05	0.005985646802105241
1.37858e-05	0.00602794840476685
1.37860e-05	0.00607025000742846
1.37863e-05	0.006112551610089783
1.37865e-05	0.006154853212751393
1.37868e-05	0.006197154815413003
1.37870e-05	0.006225366348344287
1.37873e-05	0.006245560099314353
1.37875e-05	0.006265753850284418
1.37878e-05	0.006285947601254348
1.37880e-05	0.006306141352224413
1.37883e-05	0.006326335103194479
1.37885e-05	0.006346528854164407
1.37888e-05	0.006366722605134473
1.37890e-05	0.0063869163561045385
1.37893e-05	0.006407110107074467
1.37895e-05	0.006427303858044533
1.37898e-05	0.006447497609014598
1.37900e-05	0.006467691359984527
1.37903e-05	0.006487885110954592
1.37905e-05	0.006508078861924658
1.37908e-05	0.006528272612894587
1.37910e-05	0.006539469768461373
1.37913e-05	0.006545547521375652
1.37915e-05	0.006551625274289932
1.37918e-05	0.006557703027204171
1.37920e-05	0.006563780780118451
1.37923e-05	0.00656985853303273
1.37925e-05	0.0065759362859469685
1.37928e-05	0.006582014038861248
1.37930e-05	0.006588091791775528
1.37933e-05	0.006594169544689767
1.37935e-05	0.0066002472976040465
1.37938e-05	0.006606325050518326
1.37940e-05	0.006612402803432565
1.37943e-05	0.006618480556346845
1.37945e-05	0.0066245583092611245
1.37948e-05	0.006630636062175363
1.37950e-05	0.006634311380642581
1.37953e-05	0.00663661962315148
1.37955e-05	0.006638927865660363
1.37958e-05	0.006641236108169262
1.37960e-05	0.0066435443506781605
1.37963e-05	0.006645852593187044
1.37965e-05	0.006648160835695942
1.37968e-05	0.00665046907820484
1.37970e-05	0.006652777320713723
1.37973e-05	0.006655085563222622
1.37975e-05	0.006657393805731521
1.37978e-05	0.006659702048240404
1.37980e-05	0.0066620102907493026
1.37983e-05	0.006664318533258201
1.37985e-05	0.0066666267757670835
1.37988e-05	0.006668935018275982
1.37990e-05	0.006671243260784881
1.37993e-05	0.006673551503293764
1.37995e-05	0.006675859745802663
1.37998e-05	0.0066781679883115615
1.38000e-05	0.00668047623082046
1.38003e-05	0.0066827844733293425
1.38005e-05	0.006685092715838241
1.38008e-05	0.006687986430702307
1.38010e-05	0.006691213301454186
1.38013e-05	0.006694440172206086
1.38015e-05	0.006697667042957986
1.38018e-05	0.006700893913709864
1.38020e-05	0.006704120784461765
1.38023e-05	0.006707347655213664
1.38025e-05	0.006710574525965543
1.38028e-05	0.006713801396717443
1.38030e-05	0.0067170282674693434
1.38033e-05	0.006720255138221221
1.38035e-05	0.006723482008973122
1.38038e-05	0.006726708879725022
1.38040e-05	0.0067299357504769005
1.38043e-05	0.0067331626212288
1.38045e-05	0.006736389491980701
1.38048e-05	0.006739616362732579
1.38050e-05	0.006742843233484479
1.38053e-05	0.006746070104236379
1.38055e-05	0.006749296974988258
1.38058e-05	0.0067525238457401575
1.38060e-05	0.006755750716492058
1.38063e-05	0.006758977587243936
1.38065e-05	0.006754705510688444
1.38068e-05	0.006746166249821889
1.38070e-05	0.0067376269889553924
1.38073e-05	0.006729087728088837
1.38075e-05	0.006720548467222283
1.38078e-05	0.006712009206355786
1.38080e-05	0.006703469945489231
1.38083e-05	0.006694930684622676
1.38085e-05	0.006686391423756179
1.38088e-05	0.006677852162889625
1.38090e-05	0.00666931290202307
1.38093e-05	0.006660773641156515
1.38095e-05	0.006652234380290018
1.38098e-05	0.006631381292308726
1.38100e-05	0.0066035211715101795
1.38103e-05	0.006575661050711821
1.38105e-05	0.0065478009299132734
1.38108e-05	0.006519940809114726
1.38110e-05	0.006492080688316367
1.38113e-05	0.006464220567517821
1.38115e-05	0.006436360446719273
1.38118e-05	0.0064085003259209145
1.38120e-05	0.006380640205122367
1.38123e-05	0.00635278008432382
1.38125e-05	0.006324919963525462
1.38128e-05	0.006297059842726914
1.38130e-05	0.006265220225290651
1.38133e-05	0.006231116123931038
1.38135e-05	0.006197012022571194
1.38138e-05	0.006163107593691323
1.38140e-05	0.006129316785995981
1.38143e-05	0.00609552597830041
1.38145e-05	0.00606173517060484
1.38148e-05	0.006030867316347809
1.38150e-05	0.006005191606741064
1.38153e-05	0.005979515897134319
1.38155e-05	0.005953840187527748
1.38158e-05	0.005930274604743434
1.38160e-05	0.005902952891285396
1.38163e-05	-0.05472360700025634
1.38165e-05	-0.0333909001728859
1.38168e-05	-0.014781826998193035
1.38170e-05	-0.0017949730572705998
1.38173e-05	0.013610393010819087
1.38175e-05	0.02419798775167171
1.38178e-05	0.021769879336592923
1.38180e-05	0.012606357034779735
1.38183e-05	0.00014886940735889774
1.38185e-05	-0.00899654349235845
1.38188e-05	-0.006144210763744787
1.38190e-05	0.002272683295695479
1.38193e-05	0.011643482304922143
1.38195e-05	0.018103307147054416
1.38198e-05	0.016482194197839646
1.38200e-05	0.01067940097400803
1.38203e-05	0.0028331066534426383
1.38205e-05	-0.002927698034708472
1.38208e-05	-0.0011673364271308185
1.38210e-05	0.004081617465577658
1.38213e-05	0.009929667722330268
1.38215e-05	0.013955288480452507
1.38218e-05	0.012919997316820947
1.38220e-05	0.009266445330341697
1.38223e-05	0.0043340465212078575
1.38225e-05	0.0007091167130250346
1.38228e-05	0.0017962227851544546
1.38230e-05	0.005069003705020774
1.38233e-05	0.008717323807840703
1.38235e-05	0.011224339092774562
1.38238e-05	0.010561630297002848
1.38240e-05	0.008259454557699792
1.38243e-05	0.005156897681465758
1.38245e-05	0.002873991281825429
1.38248e-05	0.003543147221284801
1.38250e-05	0.005581628125547748
1.38253e-05	0.007855464322969125
1.38255e-05	0.009414499017527132
1.38258e-05	0.008988227655220815
1.38260e-05	0.007535311739797044
1.38263e-05	0.005581328932484443
1.38265e-05	0.004140640692868713
1.38268e-05	0.004548005681426555
1.38270e-05	0.005811114485785458
1.38273e-05	0.007219428097371131
1.38275e-05	0.008177902512704779
1.38278e-05	0.00789089792823213
1.38280e-05	0.0069591292914911555
1.38283e-05	0.005711987106158528
1.38285e-05	0.004784991504346254
1.38288e-05	0.005014292652671319
1.38290e-05	0.005778358441709596
1.38293e-05	0.006632207342760176
1.38295e-05	0.007203240807347036
1.38298e-05	0.006993246580140871
1.38300e-05	0.006378695007390513
1.38303e-05	0.005566072377730207
1.38305e-05	0.004953596488185105
1.38308e-05	0.005065117092670852
1.38310e-05	0.0055113887825160935
1.38313e-05	0.006013787895322718
1.38315e-05	0.00633905463264346
1.38318e-05	0.006175271142009807
1.38320e-05	0.005758421946629249
1.38323e-05	0.005217997503572087
1.38325e-05	0.004803572749883815
1.38328e-05	0.0048433913393111485
1.38330e-05	0.005093731526987388
1.38333e-05	0.0053801845461997596
1.38335e-05	0.005556772172319842
1.38338e-05	0.005428261017122777
1.38340e-05	0.005142624907353965
1.38343e-05	0.0047811201746226235
1.38345e-05	0.0045002127391994984
1.38348e-05	0.00450562998174392
1.38350e-05	0.004644819375343316
1.38353e-05	0.0048086572361085754
1.38355e-05	0.004905839038485857
1.38358e-05	0.00481421584074448
1.38360e-05	0.004626625466425595
1.38363e-05	0.004394024192303127
1.38365e-05	0.00421404380555489
1.38368e-05	0.004214532527707364
1.38370e-05	0.004298934828928824
1.38373e-05	0.004398553547148625
1.38375e-05	0.0044562033270562
1.38378e-05	0.00439539189018996
1.38380e-05	0.004274294544970931
1.38383e-05	0.004124848327364687
1.38385e-05	0.004008224069671339
1.38388e-05	0.004004513080609211
1.38390e-05	0.004053239670340128
1.38393e-05	0.004111383664754138
1.38395e-05	0.0041431395777767315
1.38398e-05	0.004100611940927097
1.38400e-05	0.004020261372824604
1.38403e-05	0.0039221102482356026
1.38405e-05	0.0038444909538449487
1.38408e-05	0.0038375830911743783
1.38410e-05	0.003863514833310465
1.38413e-05	0.0038953517133770107
1.38415e-05	0.003910680657100172
1.38418e-05	0.003879518094306373
1.38420e-05	0.0038247212371923323
1.38423e-05	0.003758849150300819
1.38425e-05	0.0037059280072310728
1.38428e-05	0.0036974028066380105
1.38430e-05	0.003709563299944184
1.38433e-05	0.0037255521806244113
1.38435e-05	0.003731345424878173
1.38438e-05	0.0037081786682546434
1.38440e-05	0.003670387356422144
1.38443e-05	0.00362585467037649
1.38445e-05	0.0035896464647095045
1.38448e-05	0.0035814737745066146
1.38450e-05	0.0035865405408992274
1.38453e-05	0.003594273894312895
1.38455e-05	0.0035957365828467765
1.38458e-05	0.003579444729856155
1.38460e-05	0.003554159418349488
1.38463e-05	0.003524949300703827
1.38465e-05	0.003501949252350199
1.38468e-05	0.003496980775203971
1.38470e-05	0.0035015000290198306
1.38473e-05	0.0035088229020086856
1.38475e-05	0.0035126685177995264
1.38478e-05	0.0035067199634614492
1.38480e-05	0.003496161596649561
1.38483e-05	0.003484028093316786
1.38485e-05	0.003476127055516502
1.38488e-05	0.003480523354129496
1.38490e-05	0.003490959257619461
1.38493e-05	0.0035022679195919693
1.38495e-05	0.0035135765815644013
1.38498e-05	0.0035226631723407685
1.38500e-05	0.0035272329647936824
1.38503e-05	0.003533349813853515
1.38505e-05	0.0035394666629133885
1.38508e-05	0.0035490156078692024
1.38510e-05	0.0035668582240243885
1.38513e-05	0.0035853823076437467
1.38515e-05	0.003603906391263105
1.38518e-05	0.0036210363337152718
1.38520e-05	0.0036352454636528683
1.38523e-05	0.003650222527636547
1.38525e-05	0.003665199591620226
1.38528e-05	0.0036823027779613908
1.38530e-05	0.003704362666540342
1.38533e-05	0.0037257658466488337
1.38535e-05	0.0037456380196947713
1.38538e-05	0.003765510192740844
1.38540e-05	0.003784535495268473
1.38543e-05	0.0038015864594052756
1.38545e-05	0.003818637423542194
1.38548e-05	0.0038363672632783226
1.38550e-05	0.0038556797890671344
1.38553e-05	0.0038749923148560777
1.38555e-05	0.003892624821561811
1.38558e-05	0.003906340641948724
1.38560e-05	0.0039200564623357295
1.38563e-05	0.003933291082465321
1.38565e-05	0.003945403863870689
1.38568e-05	0.0039575166452761375
1.38570e-05	0.00397039151928968
1.38573e-05	0.003985043086033431
1.38575e-05	0.003999694652777282
1.38578e-05	0.004014081844768245
1.38580e-05	0.004027852690797275
1.38583e-05	0.004041623536826397
1.38585e-05	0.004056345740575705
1.38588e-05	0.0040732858773261296
1.38590e-05	0.004090226014076669
1.38593e-05	0.004107869301936768
1.38595e-05	0.004127151870182763
1.38598e-05	0.00414643443842889
1.38600e-05	0.0041660358498956515
1.38603e-05	0.004186380591538127
1.38605e-05	0.004206725333180464
1.38608e-05	0.0042279837379404755
1.38610e-05	0.004251372196977223
1.38613e-05	0.0042747606560138126
1.38615e-05	0.004298388841540417
1.38618e-05	0.004322575909684898
1.38620e-05	0.004346762977829214
1.38623e-05	0.004371144250057213
1.38625e-05	0.004395978276950194
1.38628e-05	0.004420812303843005
1.38630e-05	0.004445805402890764
1.38633e-05	0.0044711693523287
1.38635e-05	0.004496533301766464
1.38638e-05	0.0045214636467895385
1.38640e-05	0.004545383114914246
1.38643e-05	0.004569302583038792
1.38645e-05	0.004592746884838262
1.38648e-05	0.0046150834150269805
1.38650e-05	0.004637419945215549
1.38653e-05	0.004658879994354667
1.38655e-05	0.0046782966730515374
1.38658e-05	0.004697713351748276
1.38660e-05	0.004715882381034448
1.38663e-05	0.004731142722301239
1.38665e-05	0.004746403063567927
1.38668e-05	0.004760883653074342
1.38670e-05	0.004773546380460101
1.38673e-05	0.0047862091078457744
1.38675e-05	0.004798030486110722
1.38678e-05	0.004807890398208176
1.38680e-05	0.004817750310305563
1.38683e-05	0.004826748884426223
1.38685e-05	0.004833739391671287
1.38688e-05	0.00484072989891635
1.38690e-05	0.004847172739463379
1.38693e-05	0.004852338785784771
1.38695e-05	0.004857504832106163
1.38698e-05	0.004862022242380002
1.38700e-05	0.004865027465107857
1.38703e-05	0.0048680326878357124
1.38705e-05	0.004870537536846563
1.38708e-05	0.004871875847386289
1.38710e-05	0.004873214157926014
1.38713e-05	0.004874187683492244
1.38715e-05	0.004874310773292523
1.38718e-05	0.004874433863092801
1.38720e-05	0.004874171293776263
1.38723e-05	0.004873009624084856
1.38725e-05	0.00487184795439345
1.38728e-05	0.004870479034279001
1.38730e-05	0.00486862694411895
1.38733e-05	0.0048667748539588974
1.38735e-05	0.004864763971208538
1.38738e-05	0.0048623828898261045
1.38740e-05	0.0048600018084436715
1.38743e-05	0.004857520363434628
1.38745e-05	0.004854804937247908
1.38748e-05	0.004852089511061187
1.38750e-05	0.004849414342150902
1.38753e-05	0.004846833026414926
1.38755e-05	0.00484425171067895
1.38758e-05	0.0048417370710570565
1.38760e-05	0.004839377875755126
1.38763e-05	0.004837018680453196
1.38765e-05	0.004834297682198312
1.38768e-05	0.0048307332002644
1.38770e-05	0.004827168718330489
1.38773e-05	0.00482279168241115
1.38775e-05	0.004816520311414161
1.38778e-05	0.004810248940417129
1.38780e-05	0.004803269991874228
1.38783e-05	0.0047946414434409034
1.38785e-05	0.00478601289500752
1.38788e-05	0.004776434666240962
1.38790e-05	0.00476464241502169
1.38793e-05	0.004752850163802338
1.38795e-05	0.004740155292260455
1.38798e-05	0.004725356110888627
1.38800e-05	0.0047105569295167
1.38803e-05	0.004695028550950508
1.38805e-05	0.004677800169863243
1.38808e-05	0.004660571788775859
1.38810e-05	0.004642609131740607
1.38813e-05	0.004622934631911131
1.38815e-05	0.00460326013208152
1.38818e-05	0.004583116196997476
1.38820e-05	0.004561877851344802
1.38823e-05	0.004540639505691983
1.38825e-05	0.004519134735147374
1.38828e-05	0.004497008839081096
1.38830e-05	0.004474882943014668
1.38833e-05	0.004452688227506974
1.38835e-05	0.004430333070866914
1.38838e-05	0.004407977914226703
1.38840e-05	0.004385888110814661
1.38843e-05	0.0043644169345183345
1.38845e-05	0.004342945758221862
1.38848e-05	0.004321988607704689
1.38850e-05	0.00430222982318221
1.38853e-05	0.004282471038659597
1.38855e-05	0.00426354605501809
1.38858e-05	0.004246564940074268
1.38860e-05	0.0042295838251305605
1.38863e-05	0.004213415031201596
1.38865e-05	0.004199140029218748
1.38868e-05	0.004184865027235997
1.38870e-05	0.004170517524880367
1.38873e-05	0.0041560009999098355
1.38875e-05	0.004141484474939402
1.38878e-05	0.004127035324993962
1.38880e-05	0.0041127432487639125
1.38883e-05	0.00409845117253396
1.38885e-05	0.004084051836754979
1.38888e-05	0.004069402443097136
1.38890e-05	0.004054753049439392
1.38893e-05	0.004039719720645503
1.38895e-05	0.004023791310651855
1.38898e-05	0.004007862900658314
1.38900e-05	0.003991795081207502
1.38903e-05	0.003975402251689979
1.38905e-05	0.003959009422172566
1.38908e-05	0.003942325985441037
1.38910e-05	0.0039249650461072
1.38913e-05	0.003907604106773482
1.38915e-05	0.0038900504077724477
1.38918e-05	0.0038720473215234142
1.38920e-05	0.0038540442352745026
1.38923e-05	0.0038360517025823023
1.38925e-05	0.00381808377376046
1.38928e-05	0.0038001158449387402
1.38930e-05	0.0037821497798796945
1.38933e-05	0.0037641880598750167
1.38935e-05	0.0037462263398704604
1.38938e-05	0.0037285096813764332
1.38940e-05	0.0037113643432186206
1.38943e-05	0.0036942190050608076
1.38945e-05	0.003677484626599639
1.38948e-05	0.0036617083326265106
1.38950e-05	0.0036459320386533827
1.38953e-05	0.0036307073951709432
1.38955e-05	0.0036167688334681754
1.38958e-05	0.003602830271765407
1.38960e-05	0.003589891176159095
1.38963e-05	0.003579282170270768
1.38965e-05	0.003568673164382441
1.38968e-05	0.003564089043530876
1.38970e-05	0.003573550944578047
1.38973e-05	0.0035830128456252174
1.38975e-05	0.003592474746672324
1.38978e-05	0.0036019366477194944
1.38980e-05	0.0036113985487666654
1.38983e-05	0.003620860449813772
1.38985e-05	0.0036303223508609424
1.38988e-05	0.003639784251908113
1.38990e-05	0.0036591396659584013
1.38993e-05	0.0037015601674687676
1.38995e-05	0.003743980668979134
1.38998e-05	0.0037864011704892126
1.39000e-05	0.0038288216719995784
1.39003e-05	0.0038712421735099447
1.39005e-05	0.003913662675020023
