Time(s)	Current(A)
6.00000e-06	-0.00017676032798431411
6.00025e-06	-0.00018348905059926968
6.00050e-06	-0.0001865336183066816
6.00075e-06	-0.0001859365578837217
6.00100e-06	-0.00018173929040965348
6.00125e-06	-0.0001738833708978952
6.00150e-06	-0.00016212827855712237
6.00175e-06	-0.00014625889300605888
6.00200e-06	-0.00012629261474275666
6.00225e-06	-0.00010240028538788904
6.00250e-06	-7.478231087746252e-05
6.00275e-06	-4.363908775403766e-05
6.00300e-06	-9.170316665652303e-06
6.00325e-06	2.8486860264434827e-05
6.00350e-06	6.930935685716423e-05
6.00375e-06	0.00011325818163843076
6.00400e-06	0.00016014867802210757
6.00425e-06	0.00020970010244097161
6.00450e-06	0.0002616131865599188
6.00475e-06	0.00031558872790466585
6.00500e-06	0.00037183597575610975
6.00525e-06	0.0004287798464879321
6.00550e-06	0.00048780357143919054
6.00575e-06	0.0005476812101442653
6.00600e-06	0.000607558848849543
6.00625e-06	0.0006680529118322067
6.00650e-06	0.0007288000565760068
6.00675e-06	0.0007895472013200128
6.00700e-06	0.0008502943460638129
6.00725e-06	0.0009081943146348413
6.00750e-06	0.0009649253345026176
6.00775e-06	0.0010216563543702017
6.00800e-06	0.001078387374237978
6.00825e-06	0.001130564393661107
6.00850e-06	0.0011808717033817723
6.00875e-06	0.001226656972800252
6.00900e-06	0.0012705856542073758
6.00925e-06	0.0013093778655344816
6.00950e-06	0.0013460612259597405
6.00975e-06	0.0013827445863848749
6.01000e-06	0.0014161550686968205
6.01025e-06	0.0014482218243145873
6.01050e-06	0.0014802885799322456
6.01075e-06	0.0015081162116250164
6.01100e-06	0.0015342034106524446
6.01125e-06	0.001560290609679784
6.01150e-06	0.0015806308370368972
6.01175e-06	0.0015986115633747015
6.01200e-06	0.0016165922897124448
6.01225e-06	0.001634573016050249
6.01250e-06	0.0016525537423879924
6.01275e-06	0.0016705344687257357
6.01300e-06	0.00168851519506354
6.01325e-06	0.0017064959214012835
6.01350e-06	0.0017244766477390269
6.01375e-06	0.001740719827666091
6.01400e-06	0.0017503843948535212
6.01425e-06	0.0017600489620409514
6.01450e-06	0.0017697135292284144
6.01475e-06	0.0017793780964158446
6.01500e-06	0.0017890426636032748
6.01525e-06	0.0017987072307907377
6.01550e-06	0.001808371797978168
6.01575e-06	0.0018180363651655982
6.01600e-06	0.001827700932353061
6.01625e-06	0.0018345155125510484
6.01650e-06	0.0018401599900250676
6.01675e-06	0.001845804467499068
6.01700e-06	0.0018514489449730682
6.01725e-06	0.0018570934224470875
6.01750e-06	0.001862737899921088
6.01775e-06	0.0018679350032446993
6.01800e-06	0.0018714382805694253
6.01825e-06	0.0018749415578941393
6.01850e-06	0.0018784448352188534
6.01875e-06	0.0018819481125435795
6.01900e-06	0.0018854513898682935
6.01925e-06	0.0018889546671930076
6.01950e-06	0.0018872450157847848
6.01975e-06	0.0018833951222868607
6.02000e-06	0.0018795452287889366
6.02025e-06	0.0018680404170154084
6.02050e-06	0.0018533927695873927
6.02075e-06	0.001838745122159327
6.02100e-06	0.0018170677290227212
6.02125e-06	0.0017925041737274524
6.02150e-06	0.0017679406184321006
6.02175e-06	0.0017359227640446721
6.02200e-06	0.0017008444410641192
6.02225e-06	0.0016586392746156975
6.02250e-06	0.0016135080811417624
6.02275e-06	0.0015683768876678273
6.02300e-06	0.0015162413130222021
6.02325e-06	0.0014612299899899222
6.02350e-06	0.0014062186669576424
6.02375e-06	0.0013450428165004873
6.02400e-06	0.0012813360315665765
6.02425e-06	0.0012176292466326657
6.02450e-06	0.0011937196932241716
6.02475e-06	-0.0003388419976446133
6.02500e-06	-0.006227397409275203
6.02525e-06	-0.002293311355565043
6.02550e-06	0.005897152624897667
6.02575e-06	0.011168106900894386
6.02600e-06	0.013674844447293034
6.02625e-06	0.010023226287716402
6.02650e-06	0.003941972478645132
6.02675e-06	-0.0009573253497415415
6.02700e-06	-0.004197356637378003
6.02725e-06	-0.0015380670769243499
6.02750e-06	0.0035445706460119726
6.02775e-06	0.00680806881402548
6.02800e-06	0.008344634629174386
6.02825e-06	0.006028027529216898
6.02850e-06	0.0021942001377090953
6.02875e-06	-0.0008944217756390019
6.02900e-06	-0.002938831383138645
6.02925e-06	-0.001283619079085379
6.02950e-06	0.0018923726901762688
6.02975e-06	0.003930168645613861
6.03000e-06	0.004886880515293496
6.03025e-06	0.0034306122786968646
6.03050e-06	0.0010246971762786715
6.03075e-06	-0.0009137147471965374
6.03100e-06	-0.002197425004086957
6.03125e-06	-0.0011632678156619047
6.03150e-06	0.0008237434184495671
6.03175e-06	0.00209798321818631
6.03200e-06	0.0026952568674205838
6.03225e-06	0.001781335779169728
6.03250e-06	0.0002729184799156539
6.03275e-06	-0.0009423056555279404
6.03300e-06	-0.0017471312189028334
6.03325e-06	-0.0010998600497890577
6.03350e-06	0.0001443517985373399
6.03375e-06	0.0009421337587830762
6.03400e-06	0.00131593677205876
6.03425e-06	0.0007432482169448285
6.03450e-06	-0.00020166740253879949
6.03475e-06	-0.000962767777179556
6.03500e-06	-0.0014666683243154842
6.03525e-06	-0.0010609159110359472
6.03550e-06	-0.00028124895066645496
6.03575e-06	0.00021875190542040873
6.03600e-06	0.0004531649569575267
6.03625e-06	9.471889592611784e-05
6.03650e-06	-0.0004968388822713768
6.03675e-06	-0.0009732071289547421
6.03700e-06	-0.0012884385365746001
6.03725e-06	-0.001033878332724615
6.03750e-06	-0.0005451564069090609
6.03775e-06	-0.00023168452269441364
6.03800e-06	-8.463516505238173e-05
6.03825e-06	-0.00030899258606316356
6.03850e-06	-0.0006793941915030147
6.03875e-06	-0.0009776673143654234
6.03900e-06	-0.001175039365084147
6.03925e-06	-0.0010152353033244103
6.03950e-06	-0.0007075846519443825
6.03975e-06	-0.0005075641426881455
6.04000e-06	-0.0004092569580510526
6.04025e-06	-0.0005411062237145549
6.04050e-06	-0.0007620757338778138
6.04075e-06	-0.00093564560186746
6.04100e-06	-0.0010439429692259141
6.04125e-06	-0.0009265957792274982
6.04150e-06	-0.0007148872998460498
6.04175e-06	-0.0005689940678460909
6.04200e-06	-0.0004853487641289887
6.04225e-06	-0.0005445434327429885
6.04250e-06	-0.0006583689688327432
6.04275e-06	-0.0007414531385090817
6.04300e-06	-0.0007827484307068024
6.04325e-06	-0.0006819510830007305
6.04350e-06	-0.0005214507226104564
6.04375e-06	-0.0004017272134652448
6.04400e-06	-0.0003206870143770443
6.04425e-06	-0.0003289516347915656
6.04450e-06	-0.0003714059715038803
6.04475e-06	-0.0003947169438420329
6.04500e-06	-0.0003921110426796907
6.04525e-06	-0.0003009079645240282
6.04550e-06	-0.0001728667594129166
6.04575e-06	-7.107297423930525e-05
6.04600e-06	5.642555144424358e-06
6.04625e-06	2.5429732249094713e-05
6.04650e-06	2.267163684736658e-05
6.04675e-06	3.06320219129754e-05
6.04700e-06	5.3408032068294066e-05
6.04725e-06	0.00013011481094583693
6.04750e-06	0.00022818253607760435
6.04775e-06	0.00030794977289113994
6.04800e-06	0.0003700059601131938
6.04825e-06	0.0003942581636694991
6.04850e-06	0.00040210181365834386
6.04875e-06	0.0004142292119257168
6.04900e-06	0.00043306970803194195
6.04925e-06	0.0004835004505890951
6.04950e-06	0.0005465332787073036
6.04975e-06	0.0005989188613039065
6.05000e-06	0.0006417406386258549
6.05025e-06	0.0006624608682450333
6.05050e-06	0.0006743910272307025
6.05075e-06	0.0006904009413039732
6.05100e-06	0.0007119199282387263
6.05125e-06	0.0007544378055616683
6.05150e-06	0.000805966982059528
6.05175e-06	0.0008518519812995637
6.05200e-06	0.0008926799845867426
6.05225e-06	0.0009205060467866986
6.05250e-06	0.000943577334126294
6.05275e-06	0.0009698635482789372
6.05300e-06	0.0010001675630117635
6.05325e-06	0.0010440994555059523
6.05350e-06	0.0010940572445540175
6.05375e-06	0.0011407685402694046
6.05400e-06	0.0011845093531048614
6.05425e-06	0.0012202115222960269
6.05450e-06	0.0012529494677980904
6.05475e-06	0.0012876234522344627
6.05500e-06	0.0013246440490680869
6.05525e-06	0.0013699384157631373
6.05550e-06	0.0014186522120399093
6.05575e-06	0.001464885042105964
6.05600e-06	0.0015087179648653614
6.05625e-06	0.0015468845951845855
6.05650e-06	0.0015824716772007924
6.05675e-06	0.0016184568245180334
6.05700e-06	0.0016550052139394896
6.05725e-06	0.0016957372312398065
6.05750e-06	0.001737519696526528
6.05775e-06	0.0017765646044361537
6.05800e-06	0.001812830867263191
6.05825e-06	0.0018441806676869961
6.05850e-06	0.001872455884874538
6.05875e-06	0.0018994296621659753
6.05900e-06	0.001925890059402404
6.05925e-06	0.001952278735308168
6.05950e-06	0.0019776978931797715
6.05975e-06	0.0020026617619617803
6.06000e-06	0.0020246689136405737
6.06025e-06	0.0020452875805353076
6.06050e-06	0.002063824148238173
6.06075e-06	0.002081382954814008
6.06100e-06	0.002098747841939916
6.06125e-06	0.002116021663807977
6.06150e-06	0.002132479328775407
6.06175e-06	0.0021485537235826266
6.06200e-06	0.002164628118389901
6.06225e-06	0.00217821234875745
6.06250e-06	0.0021906271891179324
6.06275e-06	0.002203042029478457
6.06300e-06	0.002215241509404078
6.06325e-06	0.0022273398553096617
6.06350e-06	0.002239438201215204
6.06375e-06	0.0022497149642832157
6.06400e-06	0.002259136305623581
6.06425e-06	0.0022685576469639143
6.06450e-06	0.002277978988304248
6.06475e-06	0.002287400329644613
6.06500e-06	0.0022968216709849465
6.06525e-06	0.0023062430123252796
6.06550e-06	0.0023156643536656448
6.06575e-06	0.002324613236983636
6.06600e-06	0.002331416438823839
6.06625e-06	0.002338219640664065
6.06650e-06	0.002345022842504268
6.06675e-06	0.0023518260443444712
6.06700e-06	0.0023586292461846973
6.06725e-06	0.0023654324480249
6.06750e-06	0.002372235649865126
6.06775e-06	0.002379038851705329
6.06800e-06	0.002383879485825275
6.06825e-06	0.0023877984912192706
6.06850e-06	0.0023917174966132525
6.06875e-06	0.0023956365020072344
6.06900e-06	0.0023995555074012294
6.06925e-06	0.0024034745127952113
6.06950e-06	0.0024073935181891932
6.06975e-06	0.0024041925020987717
6.07000e-06	0.002397647898797826
6.07025e-06	0.00239110329549688
6.07050e-06	0.0023845586921959114
6.07075e-06	0.0023780140888949655
6.07100e-06	0.002371469485594019
6.07125e-06	0.002364924882293051
6.07150e-06	0.002346837791256576
6.07175e-06	0.0023233303072544573
6.07200e-06	0.0022998228232524185
6.07225e-06	0.0022763153392503796
6.07250e-06	0.0022528078552482614
6.07275e-06	0.0022293003712462226
6.07300e-06	0.0022057928872441838
6.07325e-06	0.002182285403242065
6.07350e-06	0.002148714961313212
6.07375e-06	0.0021104189188373627
6.07400e-06	0.0020721228763613837
6.07425e-06	0.0020338268338855343
6.07450e-06	0.001995530791409685
6.07475e-06	0.001957234748933706
6.07500e-06	0.0019189387064578564
6.07525e-06	0.001880642663982007
6.07550e-06	0.001838534192581437
6.07575e-06	0.0017946353911069155
6.07600e-06	0.001750736589632245
6.07625e-06	0.0017068377881577237
6.07650e-06	0.001662938986683202
6.07675e-06	0.0016190401852085316
6.07700e-06	0.0015774238056259465
6.07725e-06	0.0015368792594166708
6.07750e-06	0.0014963347132072576
6.07775e-06	0.0014557901669979818
6.07800e-06	0.0014152456207887061
6.07825e-06	0.0013747010745792931
6.07850e-06	0.0013394508409344814
6.07875e-06	0.0013066868351492944
6.07900e-06	0.0012739228293639963
6.07925e-06	0.0012454876845026984
6.07950e-06	0.0012190853880042806
6.07975e-06	0.0011926830915057734
6.08000e-06	0.0011707969872953305
6.08025e-06	0.001151031702917182
6.08050e-06	0.0011312664185391004
6.08075e-06	0.0011115011341610189
6.08100e-06	0.0010917358497828703
6.08125e-06	0.0010719705654047887
6.08150e-06	0.0010522052810267072
6.08175e-06	0.0010324399966485588
6.08200e-06	0.0010181081057314256
6.08225e-06	0.001006327755553411
6.08250e-06	0.0009945474053753567
6.08275e-06	0.0009827670551973422
6.08300e-06	0.0009709867050193276
6.08325e-06	0.0009592063548412732
6.08350e-06	0.0009474260046632587
6.08375e-06	0.0009356456544852442
6.08400e-06	0.000927392823272166
6.08425e-06	0.0009207965274106387
6.08450e-06	0.000914200231549089
6.08475e-06	0.0009076039356875617
6.08500e-06	0.0009010076398260344
6.08525e-06	0.0008944113439644846
6.08550e-06	0.0008878150481029573
6.08575e-06	0.00088121875224143
6.08600e-06	0.0008746224563798803
6.08625e-06	0.000868026160518353
6.08650e-06	0.0008636436239070651
6.08675e-06	0.000860300676450068
6.08700e-06	0.0008569577289930824
6.08725e-06	0.0008536147815360966
6.08750e-06	0.0008502718340790996
6.08775e-06	0.0008469288866221139
6.08800e-06	0.0008435859391651281
6.08825e-06	0.0008402429917081311
6.08850e-06	0.0008369000442511454
6.08875e-06	0.0008335570967941484
6.08900e-06	0.0008299652956620612
6.08925e-06	0.0008262566319661703
6.08950e-06	0.0008225479682702667
6.08975e-06	0.0008188393045743757
6.09000e-06	0.0008151306408784847
6.09025e-06	0.0008114219771825812
6.09050e-06	0.0008077133134866902
6.09075e-06	0.0008040046497907992
6.09100e-06	0.0008002959860948956
6.09125e-06	0.0007965873223990047
6.09150e-06	0.0007928786587031137
6.09175e-06	0.0007891699950072101
6.09200e-06	0.0007854613313113191
6.09225e-06	0.0007817526676154281
6.09250e-06	0.0007755373438024866
6.09275e-06	0.0007681448835549848
6.09300e-06	0.000760752423307458
6.09325e-06	0.0007533599630599563
6.09350e-06	0.0007459675028124546
6.09375e-06	0.0007385750425649278
6.09400e-06	0.0007311825823174261
6.09425e-06	0.0007237901220699244
6.09450e-06	0.0007163976618223976
6.09475e-06	0.0007090052015748958
6.09500e-06	0.0007016127413273941
6.09525e-06	0.0006942202810798673
6.09550e-06	0.0006868278208323656
6.09575e-06	0.0006794353605848639
6.09600e-06	0.0006713552255142102
6.09625e-06	0.0006629521559205179
6.09650e-06	0.0006545490863268257
6.09675e-06	0.0006461460167331049
6.09700e-06	0.0006377429471394128
6.09725e-06	0.0006295270551399379
6.09750e-06	0.0006221612354805174
6.09775e-06	0.000614795415821097
6.09800e-06	0.0006074295961616516
6.09825e-06	0.0006000637765022311
6.09850e-06	0.0005926979568428106
6.09875e-06	0.0005865233192830786
6.09900e-06	0.0005809080650398638
6.09925e-06	0.0005752928107966488
6.09950e-06	0.0005722129992313309
6.09975e-06	0.0005703238404925539
6.10000e-06	0.0005718242915514725
6.10025e-06	0.00057491651532985
6.10050e-06	0.000581196567321386
6.10075e-06	0.0005889736346883735
6.10100e-06	0.0005997430265093587
6.10125e-06	0.0006119176244506978
6.10150e-06	0.0006276939909998387
6.10175e-06	0.0006451617607940048
6.10200e-06	0.0006665353083336643
6.10225e-06	0.0006897430228820773
6.10250e-06	0.0007163677755817521
6.10275e-06	0.0007445971814524133
6.10300e-06	0.0007757587872418357
6.10325e-06	0.0008082973644575818
6.10350e-06	0.000843787588987815
6.10375e-06	0.0008806639175102794
6.10400e-06	0.000920876781471147
6.10425e-06	0.0009626564942450065
6.10450e-06	0.0010044362070190074
6.10475e-06	0.0010496005444176446
6.10500e-06	0.001096354313480767
6.10525e-06	0.0011431080825440479
6.10550e-06	0.0011898618516071702
6.10575e-06	0.001236615620670451
6.10600e-06	0.0012836003609530858
6.10625e-06	0.0013316340635636692
6.10650e-06	0.0013796677661744154
6.10675e-06	0.0014277014687849986
6.10700e-06	0.001475735171395582
6.10725e-06	0.001523768874006328
6.10750e-06	0.0015671841147666587
6.10775e-06	0.0016084305095486755
6.10800e-06	0.0016496769043308319
6.10825e-06	0.0016909232991128484
6.10850e-06	0.0017321696938948652
6.10875e-06	0.0017734160886770216
6.10900e-06	0.0018033342895757865
6.10925e-06	0.001827932730662496
6.10950e-06	0.001852531171749289
6.10975e-06	0.0018771296128359985
6.11000e-06	0.0019017280539227912
6.11025e-06	0.0019263264950095007
6.11050e-06	0.001939615846341668
6.11075e-06	0.0019475944092282112
6.11100e-06	0.0019555729721147273
6.11125e-06	0.0019556229122600845
6.11150e-06	0.001951949543195145
6.11175e-06	0.001948276174130218
6.11200e-06	0.0019369429603852996
6.11225e-06	0.0019220126565558373
6.11250e-06	0.0019070823527264258
6.11275e-06	0.0018851972746355328
6.11300e-06	0.0018600462100160256
6.11325e-06	0.0018348951453966036
6.11350e-06	0.0018036069156999973
6.11375e-06	0.0017694366516321325
6.11400e-06	0.0017352663875643832
6.11425e-06	0.001694661002663046
6.11450e-06	0.0016510336623164847
6.11475e-06	0.0016074063219699234
6.11500e-06	0.0015637789816232142
6.11525e-06	0.0015201516412766528
6.11550e-06	0.0014754289542022174
6.11575e-06	0.0014257317189754026
6.11600e-06	0.0013760344837487563
6.11625e-06	0.0013263372485221097
6.11650e-06	0.0012766400132952949
6.11675e-06	0.0012269427780686483
6.11700e-06	0.0011783742047389355
6.11725e-06	0.0011303356550175499
6.11750e-06	0.0010822971052963269
6.11775e-06	0.0010342585555751039
6.11800e-06	0.0009877022649179624
6.11825e-06	0.0009478776957340282
6.11850e-06	0.0009080531265499591
6.11875e-06	0.0008682285573660249
6.11900e-06	0.0008284039881820908
6.11925e-06	0.000793887946338524
6.11950e-06	0.0007618648076614435
6.11975e-06	0.0007298416689843631
6.12000e-06	0.0006977004728642298
6.12025e-06	0.0006655038365525199
6.12050e-06	0.00063330720024081
6.12075e-06	0.000601110563928991
6.12100e-06	0.0005693927949846145
6.12125e-06	0.0005378999038452637
6.12150e-06	0.0005064070127058062
6.12175e-06	0.00047491412156645536
6.12200e-06	0.00044163456859897546
6.12225e-06	0.00040751599293400184
6.12250e-06	0.00037339741726914386
6.12275e-06	0.00033859796160715756
6.12300e-06	0.00030347876229672817
6.12325e-06	0.00026809851833450914
6.12350e-06	0.00023259568688279402
6.12375e-06	0.0001959819873072955
6.12400e-06	0.0001588466201419759
6.12425e-06	0.00012089912368672244
6.12450e-06	8.257024845213905e-05
6.12475e-06	4.405787307622685e-05
6.12500e-06	5.561968820856815e-06
6.12525e-06	-3.2739030722077876e-05
6.12550e-06	-7.097113935837144e-05
6.12575e-06	-0.00010930968725437481
6.12600e-06	-0.0001476982180654369
6.12625e-06	-0.00018577819227612183
6.12650e-06	-0.0002237132672189025
6.12675e-06	-0.00026068606739070623
6.12700e-06	-0.0002972069799356318
6.12725e-06	-0.00033233107634396175
6.12750e-06	-0.000366799222967074
6.12775e-06	-0.00039983356973518567
6.12800e-06	-0.0004321945990332304
6.12825e-06	-0.0004626342276041581
6.12850e-06	-0.000492171559615645
6.12875e-06	-0.0005198694095891416
6.12900e-06	-0.0005452614336531535
6.12925e-06	-0.0005681772277131607
6.12950e-06	-0.0005878272720254382
6.12975e-06	-0.0006034650093686474
6.13000e-06	-0.0006147888993515846
6.13025e-06	-0.0006217956783666404
6.13050e-06	-0.000624541302575931
6.13075e-06	-0.000623081867972508
6.13100e-06	-0.0006174714061316944
6.13125e-06	-0.0006076411108525926
6.13150e-06	-0.0005932992041959656
6.13175e-06	-0.0005741808299629694
6.13200e-06	-0.0005502999347853122
6.13225e-06	-0.0005218572669050076
6.13250e-06	-0.0004890907420399397
6.13275e-06	-0.0004522382140884664
6.13300e-06	-0.0004115363022175713
6.13325e-06	-0.0003671447236948451
6.13350e-06	-0.00031908349295237245
6.13375e-06	-0.0002673894260043322
6.13400e-06	-0.00021227404573860443
6.13425e-06	-0.0001540658784351818
6.13450e-06	-9.311668319227296e-05
6.13475e-06	-2.9778176271830566e-05
6.13500e-06	3.559872712185742e-05
6.13525e-06	0.00010271132032030498
6.13550e-06	0.0001713444104563853
6.13575e-06	0.00024155773939631625
6.13600e-06	0.00031229384262181564
6.13625e-06	0.0003834068416973934
6.13650e-06	0.0004546968323933506
6.13675e-06	0.0005259868230893077
6.13700e-06	0.000596641998563404
6.13725e-06	0.0006644141427490821
6.13750e-06	0.0007321862869347601
6.13775e-06	0.0007999584311206677
6.13800e-06	0.0008637039119362913
6.13825e-06	0.0009255584574289702
6.13850e-06	0.0009829530932174944
6.13875e-06	0.001038253339675995
6.13900e-06	0.0010881033247290253
6.13925e-06	0.0011353938478000276
6.13950e-06	0.0011791221175749276
6.13975e-06	0.0012211775406361228
6.14000e-06	0.0012632329636971759
6.14025e-06	0.0013026900932120898
6.14050e-06	0.0013409270549122416
6.14075e-06	0.0013791640166122639
6.14100e-06	0.0014122102360784497
6.14125e-06	0.0014428188646811362
6.14150e-06	0.001473427493283719
6.14175e-06	0.0015040361218863017
6.14200e-06	0.0015346447504889882
6.14225e-06	0.001565253379091571
6.14250e-06	0.0015958620076941537
6.14275e-06	0.0016264706362968402
6.14300e-06	0.0016561103900740001
6.14325e-06	0.0016813499714257761
6.14350e-06	0.0017065895527776378
6.14375e-06	0.001731829134129414
6.14400e-06	0.0017570687154812754
6.14425e-06	0.0017823082968330517
6.14450e-06	0.0018075478781848277
6.14475e-06	0.0018327874595366893
6.14500e-06	0.0018580270408884655
6.14525e-06	0.0018801087574583607
6.14550e-06	0.0019007075295873726
6.14575e-06	0.001921306301716315
6.14600e-06	0.001941905073845257
6.14625e-06	0.001962503845974269
