Time(s)	Current(A)
1.40000e-05	-0.013117790585301452
1.40003e-05	-0.013061877053414888
1.40005e-05	-0.013006805238177162
1.40008e-05	-0.012952820001224902
1.40010e-05	-0.012900089558992961
1.40013e-05	-0.012848831430512589
1.40015e-05	-0.012799355642046905
1.40018e-05	-0.012752006019546833
1.40020e-05	-0.012707129237345087
1.40023e-05	-0.012665073165413689
1.40025e-05	-0.012626183991434902
1.40028e-05	-0.012590785257487396
1.40030e-05	-0.012559118460628335
1.40033e-05	-0.012531315033930407
1.40035e-05	-0.012507448090095035
1.40038e-05	-0.012487575996148734
1.40040e-05	-0.012471756271755622
1.40043e-05	-0.012460048785875942
1.40045e-05	-0.012452511238529427
1.40048e-05	-0.012450785735250935
1.40050e-05	-0.012450569668413623
1.40053e-05	-0.012456595522832401
1.40055e-05	-0.012464578819942033
1.40058e-05	-0.012481879623769813
1.40060e-05	-0.012502102362155014
1.40063e-05	-0.012522325100540214
1.40065e-05	-0.012542547838925278
1.40068e-05	-0.012566557481897158
1.40070e-05	-0.012601274496991437
1.40073e-05	-0.01263599151208548
1.40075e-05	-0.012670708527179761
1.40078e-05	-0.012705425542274041
1.40080e-05	-0.012746953480053048
1.40083e-05	-0.012790617297200461
1.40085e-05	-0.012834281114347874
1.40088e-05	-0.012881449217743006
1.40090e-05	-0.012929716251935886
1.40093e-05	-0.012977983286128765
1.40095e-05	-0.013027801583804711
1.40098e-05	-0.01307810635179085
1.40100e-05	-0.013128411119776988
1.40103e-05	-0.013178455098723495
1.40105e-05	-0.013228417295222604
1.40108e-05	-0.013277068929313567
1.40110e-05	-0.013325309576033171
1.40113e-05	-0.013371222973034573
1.40115e-05	-0.01341640655340333
1.40118e-05	-0.01345819763113566
1.40120e-05	-0.013498924832984881
1.40123e-05	-0.013535194988267335
1.40125e-05	-0.013570067430751
1.40128e-05	-0.013599642677112526
1.40130e-05	-0.013627556742980189
1.40133e-05	-0.01364846377249044
1.40135e-05	-0.013667173422132748
1.40138e-05	-0.013685883071775056
1.40140e-05	-0.013695757325837324
1.40143e-05	-0.013702860833554759
1.40145e-05	-0.013709964341272241
1.40148e-05	-0.013708005104922196
1.40150e-05	-0.013703203826609217
1.40153e-05	-0.013698402548296205
1.40155e-05	-0.01368312401814063
1.40158e-05	-0.013664559861780659
1.40160e-05	-0.013645995705420563
1.40163e-05	-0.013627431549060466
1.40165e-05	-0.013605124989677858
1.40168e-05	-0.013572236885159555
1.40170e-05	-0.013539348780641251
1.40173e-05	-0.01350646067612317
1.40175e-05	-0.013473572571604866
1.40178e-05	-0.013433700709134846
1.40180e-05	-0.013391638766816056
1.40183e-05	-0.013349576824496981
1.40185e-05	-0.013304133487004384
1.40188e-05	-0.013257629756886423
1.40190e-05	-0.013209643535020642
1.40193e-05	-0.01316048838534085
1.40195e-05	-0.013110617583499996
1.40198e-05	-0.013060307996617823
1.40200e-05	-0.01300983432287403
1.40203e-05	-0.01295947178907983
1.40205e-05	-0.01290949677570359
1.40208e-05	-0.012860195811367846
1.40210e-05	-0.012811878389028702
1.40213e-05	-0.012764865189947057
1.40215e-05	-0.012719475615786194
1.40218e-05	-0.012676028178866922
1.40220e-05	-0.012634839264548262
1.40223e-05	-0.012596226009157246
1.40225e-05	-0.01256046912636955
1.40228e-05	-0.01252754921071399
1.40230e-05	-0.01249706922640478
1.40233e-05	-0.012468720047464285
1.40235e-05	-0.012442503589460406
1.40238e-05	-0.012419468158014996
1.40240e-05	-0.012397269153126462
1.40243e-05	-0.012378961068711444
1.40245e-05	-0.012361873162112399
1.40248e-05	-0.012349329861970036
1.40250e-05	-0.012338211733074353
1.40253e-05	-0.012327093604178593
1.40255e-05	-0.012322038306429991
1.40258e-05	-0.012318884289398813
1.40260e-05	-0.012315730272367612
1.40263e-05	-0.012312576255336409
1.40265e-05	-0.01230942223830523
1.40268e-05	-0.012312874703627288
1.40270e-05	-0.012318398936610893
1.40273e-05	-0.012323923169594459
1.40275e-05	-0.012329447402578063
1.40278e-05	-0.012334971635561668
1.40280e-05	-0.012345364292982462
1.40283e-05	-0.01235728366973325
1.40285e-05	-0.012369203046484036
1.40288e-05	-0.012381122423234742
1.40290e-05	-0.01239304179998553
1.40293e-05	-0.012404961176736317
1.40295e-05	-0.012419092002000661
1.40298e-05	-0.012433916329082103
1.40300e-05	-0.012448740656163545
1.40303e-05	-0.012463564983244886
1.40305e-05	-0.012478389310326328
1.40308e-05	-0.01249321363740777
1.40310e-05	-0.01250767779911013
1.40313e-05	-0.01252202901432357
1.40315e-05	-0.012535412462327577
1.40318e-05	-0.012548492422226764
1.40320e-05	-0.012560237714161081
1.40323e-05	-0.012571564459313555
1.40325e-05	-0.012581141779125737
1.40328e-05	-0.012590170485825286
1.40330e-05	-0.01259681061543416
1.40333e-05	-0.01260270169637989
1.40335e-05	-0.012605279090407862
1.40338e-05	-0.012606817324860275
1.40340e-05	-0.01260835555931269
1.40343e-05	-0.01260590219714269
1.40345e-05	-0.012602197085500002
1.40348e-05	-0.012598491973857316
1.40350e-05	-0.01259057098938181
1.40353e-05	-0.01258132792326961
1.40355e-05	-0.01257208485715741
1.40358e-05	-0.01255797807912977
1.40360e-05	-0.01254234605960055
1.40363e-05	-0.01252671404007133
1.40365e-05	-0.012511082020542215
1.40368e-05	-0.012495450001012995
1.40370e-05	-0.01248776852247207
1.40373e-05	-0.012595399423232163
1.40375e-05	-0.04703168319384116
1.40378e-05	-0.03567670246553057
1.40380e-05	-0.028452837240981303
1.40383e-05	-0.022485715074367692
1.40385e-05	-0.002495015264808888
1.40388e-05	-0.0010079861188857437
1.40390e-05	-0.005443103077314014
1.40393e-05	-0.013341174708418287
1.40395e-05	-0.020822742147732935
1.40398e-05	-0.022631873104525375
1.40400e-05	-0.019105903818485592
1.40403e-05	-0.012601776008645201
1.40405e-05	-0.0067482155150558505
1.40408e-05	-0.0047238159517196164
1.40410e-05	-0.006763105273889675
1.40413e-05	-0.011842268567099726
1.40415e-05	-0.016621237158010966
1.40418e-05	-0.0178202176903394
1.40420e-05	-0.015659386499629866
1.40423e-05	-0.011621306583554088
1.40425e-05	-0.007983224741353987
1.40428e-05	-0.00673906184393044
1.40430e-05	-0.008037678265440315
1.40433e-05	-0.011239027043132203
1.40435e-05	-0.014251704549305685
1.40438e-05	-0.015021900987749309
1.40440e-05	-0.013688070606064317
1.40443e-05	-0.011179239126972964
1.40445e-05	-0.008922018361365119
1.40448e-05	-0.008165358787185209
1.40450e-05	-0.009002360654096013
1.40453e-05	-0.011031936557591132
1.40455e-05	-0.01294392756506919
1.40458e-05	-0.01345182783129041
1.40460e-05	-0.012642407392189027
1.40463e-05	-0.01109760982887177
1.40465e-05	-0.009710995457582541
1.40468e-05	-0.009264756827009214
1.40470e-05	-0.009817021955848809
1.40473e-05	-0.011116369058840562
1.40475e-05	-0.012341982887261311
1.40478e-05	-0.012687936342223798
1.40480e-05	-0.012208554911009396
1.40483e-05	-0.011268321779836101
1.40485e-05	-0.010426872332766417
1.40488e-05	-0.010174033640646639
1.40490e-05	-0.01054605570075996
1.40493e-05	-0.011385292641698285
1.40495e-05	-0.012177461134306738
1.40498e-05	-0.012417650658389625
1.40500e-05	-0.012139832992354209
1.40503e-05	-0.011572249851042455
1.40505e-05	-0.011065360541318042
1.40508e-05	-0.010925866212852981
1.40510e-05	-0.011176332207589179
1.40513e-05	-0.011717871100015419
1.40515e-05	-0.012228217945958941
1.40518e-05	-0.01239100794701165
1.40520e-05	-0.012227444847022826
1.40523e-05	-0.011880415257044228
1.40525e-05	-0.011569416864525629
1.40528e-05	-0.01148685038525048
1.40530e-05	-0.011647522384544404
1.40533e-05	-0.011990073882312994
1.40535e-05	-0.01231283327875496
1.40538e-05	-0.012417659519654324
1.40540e-05	-0.012317863540788843
1.40543e-05	-0.012102971543585219
1.40545e-05	-0.011910489125005641
1.40548e-05	-0.011860937858489072
1.40550e-05	-0.011963587435782743
1.40553e-05	-0.012179998926875876
1.40555e-05	-0.01238384979251552
1.40558e-05	-0.012451039214542041
1.40560e-05	-0.012389925694770569
1.40563e-05	-0.012256606438168345
1.40565e-05	-0.012137226038292969
1.40568e-05	-0.01210728193203806
1.40570e-05	-0.012172580942999769
1.40573e-05	-0.012309045518765313
1.40575e-05	-0.012437552074442339
1.40578e-05	-0.012480377577533246
1.40580e-05	-0.012442773396009578
1.40583e-05	-0.012371619107186921
1.40585e-05	-0.01229588116145121
1.40588e-05	-0.012267507282536923
1.40590e-05	-0.012308940946201174
1.40593e-05	-0.01238390147978284
1.40595e-05	-0.012466339825781644
1.40598e-05	-0.012503208375936298
1.40600e-05	-0.012480131430941226
1.40603e-05	-0.012436061489303117
1.40605e-05	-0.012389136335719987
1.40608e-05	-0.012371904035788833
1.40610e-05	-0.012398440156461972
1.40613e-05	-0.012446030577310599
1.40615e-05	-0.01249833598140762
1.40618e-05	-0.01252214271803844
1.40620e-05	-0.012508478266678271
1.40623e-05	-0.01248173628223308
1.40625e-05	-0.012453239674094898
1.40628e-05	-0.01244307419788169
1.40630e-05	-0.012459475156226417
1.40633e-05	-0.012487412546519975
1.40635e-05	-0.012517334543858406
1.40638e-05	-0.012528362720707743
1.40640e-05	-0.012514374996341265
1.40643e-05	-0.012490765023783571
1.40645e-05	-0.012465296145335475
1.40648e-05	-0.012450515108602596
1.40650e-05	-0.012451208925384104
1.40653e-05	-0.012458083041168246
1.40655e-05	-0.012465651434070885
1.40658e-05	-0.012460833448621712
1.40660e-05	-0.012439556237211699
1.40663e-05	-0.012411596467175127
1.40665e-05	-0.012382137802817465
1.40668e-05	-0.012359069904369184
1.40670e-05	-0.012346459621922259
1.40673e-05	-0.012338111712024665
1.40675e-05	-0.012326953849620173
1.40678e-05	-0.012307532635014704
1.40680e-05	-0.012278506672129758
1.40683e-05	-0.012245532265053146
1.40685e-05	-0.012216534489667114
1.40688e-05	-0.012190987690563695
1.40690e-05	-0.012165440891460448
1.40693e-05	-0.012143210472882042
1.40695e-05	-0.01212385805544282
1.40698e-05	-0.012099094403937439
1.40700e-05	-0.012069634808257202
1.40703e-05	-0.012038375706127277
1.40705e-05	-0.012007229819634695
1.40708e-05	-0.011980000558138
1.40710e-05	-0.011956990090026782
1.40713e-05	-0.011937391780949354
1.40715e-05	-0.011918371482215483
1.40718e-05	-0.011897173355082894
1.40720e-05	-0.011874184040716931
1.40723e-05	-0.011850920328004267
1.40725e-05	-0.011829598791551653
1.40728e-05	-0.011812121548944995
1.40730e-05	-0.011799479954452522
1.40733e-05	-0.011789310843260296
1.40735e-05	-0.011779928548686928
1.40738e-05	-0.011771229064517504
1.40740e-05	-0.011762909276707497
1.40743e-05	-0.011754918994678584
1.40745e-05	-0.011750653792385622
1.40748e-05	-0.01174962126609123
1.40750e-05	-0.011748588739796837
1.40753e-05	-0.01175167783678702
1.40755e-05	-0.011758343735781995
1.40758e-05	-0.011765009634776969
1.40760e-05	-0.011771675533771897
1.40763e-05	-0.011778341432766872
1.40765e-05	-0.011785293321889679
1.40768e-05	-0.011800041407518454
1.40770e-05	-0.011814789493147328
1.40773e-05	-0.011829537578776202
1.40775e-05	-0.011844285664404977
1.40778e-05	-0.01185903375003385
1.40780e-05	-0.011876463658873935
1.40783e-05	-0.011896220891192123
1.40785e-05	-0.011915978123510446
1.40788e-05	-0.011935735355828767
1.40790e-05	-0.011955492588146955
1.40793e-05	-0.011975249820465278
1.40795e-05	-0.011995914534561947
1.40798e-05	-0.012017366773965924
1.40800e-05	-0.012038819013370046
1.40803e-05	-0.012060271252774169
1.40805e-05	-0.012081723492178145
1.40808e-05	-0.012103175731582266
1.40810e-05	-0.012123883619861072
1.40813e-05	-0.012143945549881586
1.40815e-05	-0.012164007479902237
1.40818e-05	-0.012182101204937758
1.40820e-05	-0.012198486894315543
1.40823e-05	-0.012214872583693217
1.40825e-05	-0.01222777201395215
1.40828e-05	-0.012237646020064575
1.40830e-05	-0.012247520026176933
1.40833e-05	-0.012257394032289358
1.40835e-05	-0.012267268038401785
1.40838e-05	-0.012277142044514144
1.40840e-05	-0.012287016050626568
1.40843e-05	-0.01229655866929894
1.40845e-05	-0.012297067543953709
1.40848e-05	-0.012297576418608479
1.40850e-05	-0.012298085293263249
1.40853e-05	-0.012298594167918018
1.40855e-05	-0.012299103042572788
1.40858e-05	-0.012299611917227558
1.40860e-05	-0.012300120791882327
1.40863e-05	-0.012296537536302872
1.40865e-05	-0.012289403073196987
1.40868e-05	-0.012282268610091154
1.40870e-05	-0.012275134146985271
1.40873e-05	-0.012267999683879387
1.40875e-05	-0.012260865220773553
1.40878e-05	-0.01225373075766767
1.40880e-05	-0.01224417273412039
1.40883e-05	-0.012232511511117627
1.40885e-05	-0.012220850288114784
1.40888e-05	-0.01220918906511194
1.40890e-05	-0.012197527842109177
1.40893e-05	-0.012185866619106336
1.40895e-05	-0.012174205396103492
1.40898e-05	-0.012161817095470883
1.40900e-05	-0.012148797826759474
1.40903e-05	-0.012135778558048068
1.40905e-05	-0.01212286233671807
1.40908e-05	-0.012110035541338835
1.40910e-05	-0.012097208745959515
1.40913e-05	-0.012084994298959578
1.40915e-05	-0.012073311256399351
1.40918e-05	-0.012061628213839047
1.40920e-05	-0.012050010365831523
1.40923e-05	-0.012040169745416038
1.40925e-05	-0.012030329125000487
1.40928e-05	-0.012020488504584936
1.40930e-05	-0.012010581378244263
1.40933e-05	-0.012000616537136735
1.40935e-05	-0.011990651696029208
1.40938e-05	-0.011979945246186553
1.40940e-05	-0.011968595217969714
1.40943e-05	-0.011957245189752875
1.40945e-05	-0.011945895161536112
1.40948e-05	-0.011934545133319274
1.40950e-05	-0.011923195105102435
1.40953e-05	-0.011910449034175874
1.40955e-05	-0.01189649145797054
1.40958e-05	-0.011882533881765208
1.40960e-05	-0.01186857630555997
1.40963e-05	-0.011854618729354637
1.40965e-05	-0.011840661153149303
1.40968e-05	-0.011825427987859596
1.40970e-05	-0.011809087848622278
1.40973e-05	-0.011792747709384961
1.40975e-05	-0.011776407570147755
1.40978e-05	-0.011760067430910437
1.40980e-05	-0.011743680663238916
1.40983e-05	-0.011726022787224327
1.40985e-05	-0.011708364911209617
1.40988e-05	-0.011690707035194908
1.40990e-05	-0.011673049159180198
1.40993e-05	-0.011655391283165608
1.40995e-05	-0.011637629196331328
1.40998e-05	-0.011619776673898524
1.41000e-05	-0.011602114622915964
1.41003e-05	-0.011584617865706663
1.41005e-05	-0.011567498810391257
1.41008e-05	-0.011550707530032341
1.41010e-05	-0.011534359021002387
1.41013e-05	-0.011518394755089615
1.41015e-05	-0.01150284658453068
1.41018e-05	-0.011488005547061352
1.41020e-05	-0.011473865196642218
1.41023e-05	-0.011460527047433998
1.41025e-05	-0.011448361866432387
1.41028e-05	-0.011436872139829355
1.41030e-05	-0.011426501308341728
1.41033e-05	-0.011417101469596133
1.41035e-05	-0.011408860165966608
1.41038e-05	-0.011401624255223182
1.41040e-05	-0.011395897573103378
1.41043e-05	-0.011391480620572825
1.41045e-05	-0.011387063668042301
1.41048e-05	-0.011384489435378576
1.41050e-05	-0.011383514340642952
1.41053e-05	-0.011382539245907335
1.41055e-05	-0.011384080667948441
1.41058e-05	-0.011387805958246906
1.41060e-05	-0.011391531248545347
1.41063e-05	-0.011395256538843814
1.41065e-05	-0.01139898182914228
1.41068e-05	-0.011402707119440721
1.41070e-05	-0.011409107735827036
1.41073e-05	-0.011417830037399608
1.41075e-05	-0.011426552338972178
1.41078e-05	-0.01143527464054469
1.41080e-05	-0.011443996942117262
1.41083e-05	-0.011452719243689832
1.41085e-05	-0.011462962037501735
1.41088e-05	-0.011474524335625387
1.41090e-05	-0.01148608663374904
1.41093e-05	-0.011497648931872615
1.41095e-05	-0.011509211229996269
1.41098e-05	-0.01152077352811992
1.41100e-05	-0.011532326299692043
1.41103e-05	-0.011543619373951434
1.41105e-05	-0.011554912448210825
1.41108e-05	-0.01156620552247014
1.41110e-05	-0.01157749859672953
1.41113e-05	-0.011588791670988922
1.41115e-05	-0.011600084745248236
1.41118e-05	-0.011610080662650644
1.41120e-05	-0.011618950889292141
1.41123e-05	-0.011627821115933577
1.41125e-05	-0.011635335106071785
1.41128e-05	-0.011641672135310326
1.41130e-05	-0.011648009164548825
1.41133e-05	-0.011652000037601074
1.41135e-05	-0.011653954883685194
1.41138e-05	-0.0116559097297693
1.41140e-05	-0.01165786457585342
1.41143e-05	-0.011659819421937539
1.41145e-05	-0.011661774268021646
1.41148e-05	-0.011663729114105766
1.41150e-05	-0.01166243910737112
1.41153e-05	-0.011658333172231824
1.41155e-05	-0.011654227237092502
1.41158e-05	-0.011650121301953177
1.41160e-05	-0.011646015366813882
1.41163e-05	-0.011641909431674558
1.41165e-05	-0.011637803496535235
1.41168e-05	-0.011631200156420232
1.41170e-05	-0.011622429533534148
1.41173e-05	-0.011613658910648004
1.41175e-05	-0.011604888287761858
1.41178e-05	-0.011596117664875774
1.41180e-05	-0.01158734704198963
1.41183e-05	-0.0115784864061209
1.41185e-05	-0.011567171983082566
1.41188e-05	-0.011555857560044158
1.41190e-05	-0.011544543137005748
1.41193e-05	-0.011533228713967416
1.41195e-05	-0.011521914290929006
1.41198e-05	-0.011510599867890598
1.41200e-05	-0.011499030204415337
1.41203e-05	-0.01148723903973899
1.41205e-05	-0.01147544787506264
1.41208e-05	-0.011463897708294408
1.41210e-05	-0.011452556682862457
1.41213e-05	-0.011441215657430505
1.41215e-05	-0.011430322555696664
1.41218e-05	-0.011419818168377576
1.41220e-05	-0.011409687244713211
1.41223e-05	-0.011400174103039465
1.41225e-05	-0.011391284801432677
1.41228e-05	-0.011383300579415608
1.41230e-05	-0.011376683037777396
1.41233e-05	-0.01137224781198991
1.41235e-05	-0.011369059429155703
1.41238e-05	-0.011367708946229767
1.41240e-05	-0.011367953418405605
1.41243e-05	-0.011369943297154668
1.41245e-05	-0.011373447864002934
1.41248e-05	-0.011379420581840353
1.41250e-05	-0.011387535195432997
1.41253e-05	-0.011395649809025639
1.41255e-05	-0.01140792147788106
1.41258e-05	-0.011423800697109632
1.41260e-05	-0.011439679916338203
1.41263e-05	-0.011455559135566666
1.41265e-05	-0.011471438354795237
1.41268e-05	-0.011487604043495435
1.41270e-05	-0.01151157899586791
1.41273e-05	-0.011535553948240547
1.41275e-05	-0.011559528900613186
1.41278e-05	-0.011583503852985661
1.41280e-05	-0.011607478805358298
1.41283e-05	-0.011634103117993379
1.41285e-05	-0.0116630265823113
1.41288e-05	-0.011691950046629415
1.41290e-05	-0.011720873510947532
1.41293e-05	-0.011749796975265453
1.41295e-05	-0.011778720439583569
1.41298e-05	-0.011807697006544176
1.41300e-05	-0.011836719656716291
1.41303e-05	-0.011865742306888605
1.41305e-05	-0.011894764957060919
1.41308e-05	-0.011923787607233035
1.41310e-05	-0.011952810257405348
1.41313e-05	-0.011979850658232932
1.41315e-05	-0.01200517083550969
1.41318e-05	-0.01203049101278662
1.41320e-05	-0.01204964613116588
1.41323e-05	-0.01206345112568931
1.41325e-05	-0.012077256120212836
1.41328e-05	-0.012091061114736361
1.41330e-05	-0.012104866109259793
1.41333e-05	-0.012118671103783318
1.41335e-05	-0.012132476098306843
1.41338e-05	-0.012146281092830368
1.41340e-05	-0.0121600860873538
1.41343e-05	-0.012173891081877325
1.41345e-05	-0.01218769607640085
1.41348e-05	-0.012201501070924282
1.41350e-05	-0.012215306065447807
1.41353e-05	-0.012229111059971333
1.41355e-05	-0.012242916054494764
1.41358e-05	-0.012250807093320592
1.41360e-05	-0.01225356591913929
1.41363e-05	-0.01225632474495797
1.41365e-05	-0.01225908357077667
1.41368e-05	-0.012261842396595368
1.41370e-05	-0.012264601222414047
1.41373e-05	-0.012267360048232747
1.41375e-05	-0.012270118874051446
1.41378e-05	-0.012272877699870125
1.41380e-05	-0.012275636525688825
1.41383e-05	-0.012278395351507524
1.41385e-05	-0.012281154177326203
1.41388e-05	-0.012283913003144901
1.41390e-05	-0.012286671828963602
1.41393e-05	-0.012289430654782281
1.41395e-05	-0.012290084122876889
1.41398e-05	-0.012288910532256529
1.41400e-05	-0.012287736941636176
1.41403e-05	-0.012286563351015816
1.41405e-05	-0.012285389760395456
1.41408e-05	-0.012284216169775103
1.41410e-05	-0.012283042579154742
1.41413e-05	-0.012281868988534382
1.41415e-05	-0.01228069539791403
1.41418e-05	-0.01227952180729367
1.41420e-05	-0.01227834821667331
1.41423e-05	-0.01227717462605295
1.41425e-05	-0.012276001035432596
1.41428e-05	-0.012274827444812236
1.41430e-05	-0.012273653854191876
1.41433e-05	-0.012273597463390698
1.41435e-05	-0.012274510594131023
1.41438e-05	-0.012275423724871348
1.41440e-05	-0.012276336855611667
1.41443e-05	-0.012277249986351994
1.41445e-05	-0.012278163117092318
1.41448e-05	-0.012279076247832638
1.41450e-05	-0.012279989378572963
1.41453e-05	-0.01228090250931329
1.41455e-05	-0.012281815640053609
1.41458e-05	-0.012282728770793934
1.41460e-05	-0.012283641901534258
1.41463e-05	-0.012284555032274578
1.41465e-05	-0.012285468163014904
1.41468e-05	-0.01228638129375523
1.41470e-05	-0.012289065324610526
1.41473e-05	-0.012293286167216071
