Time(s)	Current(A)
1.05000e-05	0.004327234526227515
1.05002e-05	0.004326520946870849
1.05005e-05	0.004325807367514178
1.05008e-05	0.004325093788157507
1.05010e-05	0.00432438020880084
1.05013e-05	0.00432366662944417
1.05015e-05	0.004322953050087498
1.05017e-05	0.004322239470730832
1.05020e-05	0.004311870593877521
1.05023e-05	0.004294320937545965
1.05025e-05	0.0042767712812145295
1.05028e-05	0.004259221624882974
1.05030e-05	0.004241671968551419
1.05033e-05	0.004224122312219864
1.05035e-05	0.004206572655888428
1.05038e-05	0.004189022999556874
1.05040e-05	0.004171473343225318
1.05043e-05	0.004153923686893882
1.05045e-05	0.004136374030562327
1.05048e-05	0.004118824374230772
1.05050e-05	0.004101274717899336
1.05053e-05	0.004083725061567781
1.05055e-05	0.004066175405236226
1.05058e-05	0.004047228016339553
1.05060e-05	0.004027241114229952
1.05063e-05	0.00400725421212035
1.05065e-05	0.003987267310010884
1.05068e-05	0.003967280407901283
1.05070e-05	0.003947293505791682
1.05073e-05	0.0039273066036822155
1.05075e-05	0.0039073197015726145
1.05078e-05	0.0038873327994630134
1.05080e-05	0.0038673458973535477
1.05083e-05	0.0038473589952439462
1.05085e-05	0.0038293253557741313
1.05087e-05	0.0038127443849857
1.05090e-05	0.0037961634141971557
1.05093e-05	0.003779582443408612
1.05095e-05	0.0037630014726201806
1.05098e-05	0.0037464205018316364
1.05100e-05	0.0037298395310430927
1.05102e-05	0.003713258560254661
1.05105e-05	0.003696677589466117
1.05108e-05	0.0036800966186775735
1.05110e-05	0.0036635156478891416
1.05113e-05	0.0036429374672811514
1.05115e-05	0.0036193865059525624
1.05118e-05	0.003595835544623973
1.05120e-05	0.003572284583295543
1.05123e-05	0.0035487336219669537
1.05125e-05	0.0035251826606383643
1.05128e-05	0.0035016316993099345
1.05130e-05	0.003478080737981345
1.05133e-05	0.0034545297766527556
1.05135e-05	0.0034309788153243257
1.05138e-05	0.0034074278539957363
1.05140e-05	0.003383579051397549
1.05143e-05	0.003355975196931992
1.05145e-05	0.003328371342466248
1.05148e-05	0.0033007674880005046
1.05150e-05	0.003273163633534948
1.05153e-05	0.003245559779069204
1.05155e-05	0.0032179559246034604
1.05158e-05	0.0031903520701379033
1.05160e-05	0.0031627482156721598
1.05163e-05	0.0031351443612064158
1.05165e-05	0.003107540506740859
1.05168e-05	0.0030799366522751156
1.05170e-05	0.0030577533518769367
1.05172e-05	0.0030396013931792225
1.05175e-05	0.0030214494344813856
1.05178e-05	0.0030032974757835482
1.05180e-05	0.002985145517085834
1.05183e-05	0.0029669935583879967
1.05185e-05	0.0029488415996901593
1.05187e-05	0.002930689640992445
1.05190e-05	0.002912537682294608
1.05193e-05	0.002894385723596771
1.05195e-05	0.0028762337648990566
1.05198e-05	0.0028580818062012192
1.05200e-05	0.002839929847503382
1.05203e-05	0.002821777888805545
1.05205e-05	0.002804594052386228
1.05208e-05	0.0027996158763083354
1.05210e-05	0.0027946377002304435
1.05213e-05	0.0027896595241525854
1.05215e-05	0.0027846813480746934
1.05218e-05	0.002779703171996801
1.05220e-05	0.002774724995918943
1.05223e-05	0.002769746819841051
1.05225e-05	0.002764768643763159
1.05228e-05	0.0027597904676853005
1.05230e-05	0.0027548122916074085
1.05233e-05	0.0027498341155295166
1.05235e-05	0.002744855939451658
1.05238e-05	0.002739877763373766
1.05240e-05	0.002734899587295874
1.05243e-05	0.0027332162204777815
1.05245e-05	0.0027339832492836664
1.05248e-05	0.0027347502780895516
1.05250e-05	0.002735517306895431
1.05253e-05	0.002736284335701316
1.05255e-05	0.0027370513645072012
1.05257e-05	0.002737818393313081
1.05260e-05	0.0027385854221189656
1.05263e-05	0.0027393524509248504
1.05265e-05	0.0027401194797307305
1.05268e-05	0.0027408865085366153
1.05270e-05	0.0027426769147993082
1.05272e-05	0.002745228421157408
1.05275e-05	0.0027477799275155254
1.05278e-05	0.0027503314338736427
1.05280e-05	0.0027528829402317426
1.05283e-05	0.0027554344465898603
1.05285e-05	0.0027579859529479776
1.05288e-05	0.002760537459306095
1.05290e-05	0.002763088965664195
1.05293e-05	0.002765640472022312
1.05295e-05	0.0027681919783804293
1.05298e-05	0.002779482232626096
1.05300e-05	0.0027972716156216258
1.05303e-05	0.0028150609986171554
1.05305e-05	0.002832850381612564
1.05308e-05	0.0028506397646080937
1.05310e-05	0.0028684291476036234
1.05313e-05	0.0028862185305990324
1.05315e-05	0.002904007913594562
1.05318e-05	0.0029217972965900917
1.05320e-05	0.002939586679585501
1.05323e-05	0.0029573760625810305
1.05325e-05	0.0029858910438883713
1.05328e-05	0.0030223828023322164
1.05330e-05	0.0030588745607763087
1.05333e-05	0.0030953663192204014
1.05335e-05	0.0031318580776642465
1.05338e-05	0.0031683498361083392
1.05340e-05	0.0032048415945524315
1.05342e-05	0.0032413333529962766
1.05345e-05	0.0032778251114403694
1.05348e-05	0.0033143168698844616
1.05350e-05	0.003350808628328307
1.05353e-05	0.0033895650483611144
1.05355e-05	0.003430005728820256
1.05357e-05	0.0034704464092791235
1.05360e-05	0.0035108870897382653
1.05363e-05	0.003551327770197407
1.05365e-05	0.003591768450656275
1.05368e-05	0.0036322091311154167
1.05370e-05	0.0036726498115745585
1.05373e-05	0.0037130904920337
1.05375e-05	0.0037535311724925676
1.05378e-05	0.0037862604360967174
1.05380e-05	0.003813254611374368
1.05383e-05	0.0038402487866518354
1.05385e-05	0.0038672429619294856
1.05388e-05	0.0038942371372071363
1.05390e-05	0.003921231312484603
1.05393e-05	0.003948225487762254
1.05395e-05	0.0039752196630399046
1.05398e-05	0.004002213838317371
1.05400e-05	0.004029208013595022
1.05403e-05	0.004047970236760054
1.05405e-05	0.004060610242262917
1.05408e-05	0.004073250247765867
1.05410e-05	0.004085890253268817
1.05413e-05	0.004098530258771682
1.05415e-05	0.004111170264274631
1.05418e-05	0.004123810269777581
1.05420e-05	0.004136450275280445
1.05423e-05	0.004149090280783394
1.05425e-05	0.004161730286286344
1.05427e-05	0.004174370291789208
1.05430e-05	0.004187010297292158
1.05433e-05	0.004199650302795108
1.05435e-05	0.004212290308297972
1.05438e-05	0.004224930313800922
1.05440e-05	0.004237570319303871
1.05442e-05	0.004250210324806735
1.05445e-05	0.004262850330309685
1.05448e-05	0.0042754903358126345
1.05450e-05	0.0042875071669436484
1.05453e-05	0.004291667289364193
1.05455e-05	0.004295827411784738
1.05458e-05	0.004299987534205282
1.05460e-05	0.004304147656625799
1.05463e-05	0.004308307779046344
1.05465e-05	0.0043124679014668885
1.05468e-05	0.0043166280238874045
1.05470e-05	0.004320788146307949
1.05473e-05	0.004324948268728495
1.05475e-05	0.004329108391149011
1.05478e-05	0.004333268513569555
1.05480e-05	0.0043374286359901
1.05483e-05	0.004341588758410617
1.05485e-05	0.0043457488808311615
1.05488e-05	0.004349909003251706
1.05490e-05	0.004354069125672223
1.05493e-05	0.004358229248092768
1.05495e-05	0.004362389370513312
1.05498e-05	0.004366549492933829
1.05500e-05	0.004363752545455384
1.05503e-05	0.00435578152800639
1.05505e-05	0.004347810510557449
1.05508e-05	0.004339839493108455
1.05510e-05	0.004331868475659461
1.05512e-05	0.00432389745821052
1.05515e-05	0.004315926440761526
1.05518e-05	0.004307955423312531
1.05520e-05	0.004299984405863591
1.05523e-05	0.004292013388414596
1.05525e-05	0.004284042370965602
1.05527e-05	0.0042760713535166615
1.05530e-05	0.004268100336067667
1.05533e-05	0.004259463450758049
1.05535e-05	0.00424243159598074
1.05538e-05	0.004225399741203315
1.05540e-05	0.004208367886425891
1.05543e-05	0.004191336031648467
1.05545e-05	0.004174304176871158
1.05548e-05	0.004157272322093734
1.05550e-05	0.004140240467316309
1.05553e-05	0.004123208612539
1.05555e-05	0.004106176757761575
1.05558e-05	0.004089144902984151
1.05560e-05	0.004072113048206842
1.05563e-05	0.004055081193429418
1.05565e-05	0.004038049338651993
1.05568e-05	0.004024287415165768
1.05570e-05	0.004012957385213395
1.05573e-05	0.004001627355261022
1.05575e-05	0.003990297325308725
1.05578e-05	0.003978967295356351
1.05580e-05	0.003967637265403979
1.05583e-05	0.003956307235451682
1.05585e-05	0.003944977205499308
1.05588e-05	0.003933647175546936
1.05590e-05	0.003922317145594639
1.05593e-05	0.003910987115642265
1.05595e-05	0.003899657085689892
1.05597e-05	0.0038883270557375955
1.05600e-05	0.003876997025785222
1.05603e-05	0.003865666995832849
1.05605e-05	0.0038543369658805525
1.05608e-05	0.003843006935928179
1.05610e-05	0.0038316769059758057
1.05612e-05	0.003821158936888571
1.05615e-05	0.0038208790744548985
1.05618e-05	0.0038205992120212266
1.05620e-05	0.0038203193495875564
1.05623e-05	0.003820039487153884
1.05625e-05	0.003819759624720212
1.05628e-05	0.0038194797622865396
1.05630e-05	0.0038191998998528694
1.05633e-05	0.0038189200374191975
1.05635e-05	0.003818640174985525
1.05638e-05	0.003818360312551855
1.05640e-05	0.003818080450118183
1.05643e-05	0.0038178005876845105
1.05645e-05	0.0038175207252508403
1.05648e-05	0.0038172408628171684
1.05650e-05	0.003816961000383496
1.05653e-05	0.0038166811379498258
1.05655e-05	0.003816401275516154
1.05658e-05	0.0038161214130824814
1.05660e-05	0.0038171454440415675
1.05663e-05	0.003819139198713249
1.05665e-05	0.0038211329533849306
1.05668e-05	0.0038231267080565986
1.05670e-05	0.00382512046272828
1.05673e-05	0.003827114217399962
1.05675e-05	0.0038291079720716302
1.05678e-05	0.0038311017267433117
1.05680e-05	0.0038330954814149933
1.05682e-05	0.0038350892360866614
1.05685e-05	0.003837082990758343
1.05688e-05	0.0038390767454300244
1.05690e-05	0.0038410705001016925
1.05693e-05	0.0038424876879298363
1.05695e-05	0.0038366357742723772
1.05697e-05	0.0038307838606149577
1.05700e-05	0.0038249319469574983
1.05703e-05	0.0038190800333000392
1.05705e-05	0.0038132281196426197
1.05708e-05	0.0038073762059851603
1.05710e-05	0.0038015242923277012
1.05713e-05	0.003795672378670242
1.05715e-05	0.0037898204650128227
1.05718e-05	0.0037839685513553632
1.05720e-05	0.0037781166376979042
1.05723e-05	0.0037722647240404847
1.05725e-05	0.0037664128103830252
1.05728e-05	0.003755212314776459
1.05730e-05	0.0037400340041321947
1.05733e-05	0.003724855693487827
1.05735e-05	0.00370967738284346
1.05738e-05	0.003694499072199195
1.05740e-05	0.0036793207615548277
1.05743e-05	0.00366414245091046
1.05745e-05	0.0036489641402661956
1.05748e-05	0.003633785829621828
1.05750e-05	0.0036186075189774606
1.05753e-05	0.003603429208333196
1.05755e-05	0.00358820763667653
1.05758e-05	0.003572440649180434
1.05760e-05	0.0035566736616844444
1.05763e-05	0.0035409066741883483
1.05765e-05	0.003525139686692252
1.05767e-05	0.0035093726991962627
1.05770e-05	0.0034936057117001666
1.05773e-05	0.0034778387242040704
1.05775e-05	0.0034620717367080814
1.05778e-05	0.0034463047492119853
1.05780e-05	0.003430537761715889
1.05782e-05	0.0034147707742198997
1.05785e-05	0.0033997631988839797
1.05788e-05	0.0033853204089697004
1.05790e-05	0.003370877619055519
1.05793e-05	0.00335643482914124
1.05795e-05	0.003341992039226961
1.05798e-05	0.0033275492493126816
1.05800e-05	0.0033131064593985003
1.05803e-05	0.0032986636694842214
1.05805e-05	0.003284220879569942
1.05808e-05	0.0032697780896557608
1.05810e-05	0.003255335299741482
1.05813e-05	0.0032408925098272026
1.05815e-05	0.0032264497199130213
1.05818e-05	0.003212006929998742
1.05820e-05	0.0031969425645299665
1.05823e-05	0.003174041647508757
1.05825e-05	0.0031511407304873917
1.05828e-05	0.003128239813466027
1.05830e-05	0.0031053388964448173
1.05833e-05	0.003082437979423452
1.05835e-05	0.003059537062402087
1.05838e-05	0.003036636145380877
1.05840e-05	0.0030137352283595123
1.05843e-05	0.0029908343113381475
1.05845e-05	0.0029679333943169375
1.05848e-05	0.002945032477295572
1.05850e-05	0.0029221315602742074
1.05853e-05	0.0028992306432529978
1.05855e-05	0.0028763297262316325
1.05858e-05	0.002855187601802222
1.05860e-05	0.002835353515969067
1.05863e-05	0.0028155194301357775
1.05865e-05	0.0027956853443024876
1.05867e-05	0.0027758512584693325
1.05870e-05	0.0027560171726360425
1.05873e-05	0.002736183086802753
1.05875e-05	0.0027163490009695975
1.05878e-05	0.002696514915136308
1.05880e-05	0.0026766808293030185
1.05883e-05	0.0026568467434697285
1.05885e-05	0.0026370126576365734
1.05888e-05	0.002617178571803284
1.05890e-05	0.002597344485969994
1.05893e-05	0.002577510400136839
1.05895e-05	0.002557676314303549
1.05898e-05	0.0025460636317471753
1.05900e-05	0.002540565321545409
1.05903e-05	0.002535067011343605
1.05905e-05	0.0025295687011418016
1.05908e-05	0.002524070390940035
1.05910e-05	0.0025185720807382314
1.05913e-05	0.002513073770536428
1.05915e-05	0.002507575460334661
1.05918e-05	0.0025020771501328577
1.05920e-05	0.0024965788399310537
1.05923e-05	0.0024910805297292875
1.05925e-05	0.002485582219527484
1.05928e-05	0.00248008390932568
1.05930e-05	0.0024745855991239137
1.05933e-05	0.0024690872889221098
1.05935e-05	0.0024635889787203063
1.05938e-05	0.0024626488900623593
1.05940e-05	0.0024650988143813148
1.05943e-05	0.00246754873870027
1.05945e-05	0.002469998663019209
1.05948e-05	0.0024724485873381646
1.05950e-05	0.00247489851165712
1.05952e-05	0.002477348435976059
1.05955e-05	0.0024797983602950144
1.05958e-05	0.00248224828461397
1.05960e-05	0.0024846982089329088
1.05963e-05	0.002487148133251864
1.05965e-05	0.0024895980575708196
1.05968e-05	0.002492047981889775
1.05970e-05	0.0024944979062087136
1.05973e-05	0.002496947830527669
1.05975e-05	0.0024993977548466244
1.05978e-05	0.0025018476791655634
1.05980e-05	0.002504297603484519
1.05983e-05	0.0025067475278034742
1.05985e-05	0.002509197452122413
1.05988e-05	0.0025116473764413686
1.05990e-05	0.002514097300760324
1.05993e-05	0.002516547225079263
1.05995e-05	0.0025189971493982184
1.05998e-05	0.002521447073717174
1.06000e-05	0.0025238969980361124
1.06003e-05	0.002526346922355068
1.06005e-05	0.0025287968466740232
1.06008e-05	0.002531246770992962
1.06010e-05	0.0025346178615576653
1.06013e-05	0.002538674036315332
1.06015e-05	0.002542730211072971
1.06018e-05	0.0025467863858306375
1.06020e-05	0.0025508425605883043
1.06023e-05	0.0025548987353459433
1.06025e-05	0.0025589549101036097
1.06028e-05	0.0025630110848612764
1.06030e-05	0.0025670672596189155
1.06033e-05	0.002571123434376582
1.06035e-05	0.0025751796091342486
1.06037e-05	0.0025792357838918876
1.06040e-05	0.002583291958649554
1.06043e-05	0.0025873481334072208
1.06045e-05	0.00259140430816486
1.06048e-05	0.002595460482922526
1.06050e-05	0.002599516657680193
1.06053e-05	0.0026035728324378593
1.06055e-05	0.0026076290071954983
1.06058e-05	0.002611685181953165
1.06060e-05	0.0026157413567108314
1.06063e-05	0.0026197975314684705
1.06065e-05	0.0026238537062261372
1.06068e-05	0.0026279098809838036
1.06070e-05	0.0026319660557414426
1.06073e-05	0.0026360222304991094
1.06075e-05	0.0026400784052567757
1.06078e-05	0.0026441345800144148
1.06080e-05	0.0026481907547720816
1.06083e-05	0.002647453108467618
1.06085e-05	0.0026431502305348555
1.06088e-05	0.0026388473526020636
1.06090e-05	0.002634544474669272
1.06093e-05	0.0026302415967365098
1.06095e-05	0.002625938718803718
1.06098e-05	0.0026216358408709265
1.06100e-05	0.002617332962938164
1.06103e-05	0.0026130300850053722
1.06105e-05	0.002608727207072581
1.06108e-05	0.0026044243291398184
1.06110e-05	0.0026001214512070265
1.06113e-05	0.002594294660527345
1.06115e-05	0.0025692550472805695
1.06118e-05	0.002544215434033625
1.06120e-05	0.00251917582078668
1.06122e-05	0.0024941362075399046
1.06125e-05	0.00246909659429296
1.06128e-05	0.002444056981046015
1.06130e-05	0.0024190173677992397
1.06133e-05	0.002393977754552295
1.06135e-05	0.00236893814130535
1.06138e-05	0.0023438985280584052
1.06140e-05	0.00231885891481163
1.06143e-05	0.002293819301564685
1.06145e-05	0.002263034348656279
1.06148e-05	0.002227976506457225
1.06150e-05	0.0021929186642579337
1.06153e-05	0.0021578608220586422
1.06155e-05	0.002122802979859588
1.06158e-05	0.0020877451376602966
1.06160e-05	0.002052687295461005
1.06163e-05	0.002018808714180296
1.06165e-05	0.0019858071657027146
1.06168e-05	0.0019528056172251331
1.06170e-05	0.001919804068747775
1.06173e-05	0.0018868025202701936
1.06175e-05	0.001853800971792612
1.06178e-05	0.001820799423315254
1.06180e-05	0.0017916817244404627
1.06183e-05	0.0017654524987204942
1.06185e-05	0.0017392232730007035
1.06188e-05	0.0017172471081876703
1.06190e-05	0.001698434004129365
1.06193e-05	0.001679620900071187
1.06195e-05	0.001666251127350731
1.06198e-05	0.0016569296361167054
1.06200e-05	0.001647608144882743
1.06203e-05	0.0016438446168084105
1.06205e-05	0.0016442146235062854
1.06207e-05	0.0016445846302041579
1.06210e-05	0.0016507843693897009
1.06213e-05	0.001661319761989526
1.06215e-05	0.0016718551545892796
1.06218e-05	0.001687948821908826
1.06220e-05	0.001708176255712007
1.06222e-05	0.0017284036895150506
1.06225e-05	0.001753529224674623
1.06228e-05	0.0017822975461738515
1.06230e-05	0.00181106586767308
1.06233e-05	0.0018460343527920925
1.06235e-05	0.0018856139861288931
1.06238e-05	0.001925193619465694
1.06240e-05	0.0019647732528022266
1.06243e-05	0.0020043528861390272
1.06245e-05	0.0020439325194758283
1.06248e-05	0.0020840534570444737
1.06250e-05	0.0021309989206239085
1.06253e-05	0.002177944384203343
1.06255e-05	0.0022248898477824595
1.06258e-05	0.002271835311361894
1.06260e-05	0.002318780774941329
1.06263e-05	0.002365726238520445
1.06265e-05	0.0024083294342806157
1.06268e-05	0.0024477032248597986
1.06270e-05	0.0024870770154387144
1.06273e-05	0.0025264508060178974
1.06275e-05	0.00256582459659708
1.06278e-05	0.002605198387175996
1.06280e-05	0.0026445721777551786
1.06283e-05	0.0026839459683343616
1.06285e-05	0.0027233197589132774
1.06288e-05	0.0027626935494924603
1.06290e-05	0.002800577374010841
1.06292e-05	0.0028196763608379035
1.06295e-05	0.002838775347665095
1.06298e-05	0.002857874334492287
1.06300e-05	0.0028769733213193497
1.06303e-05	0.0028960723081465412
1.06305e-05	0.002915171294973733
1.06307e-05	0.0029342702818007955
1.06310e-05	0.0029533692686279874
1.06313e-05	0.0029724682554551794
1.06315e-05	0.0029915672422823713
1.06318e-05	0.0030018640998735044
1.06320e-05	0.003005614691101914
1.06323e-05	0.003009365282330324
1.06325e-05	0.0030131158735587087
1.06328e-05	0.0030168664647871185
1.06330e-05	0.0030206170560155283
1.06333e-05	0.003024367647243913
1.06335e-05	0.003028118238472323
1.06338e-05	0.0030318688297007327
1.06340e-05	0.003035619420929117
1.06343e-05	0.0030393700121575267
1.06345e-05	0.003043120603385937
1.06348e-05	0.003042470376383181
1.06350e-05	0.0030385471994401623
1.06353e-05	0.0030346240224971436
1.06355e-05	0.0030307008455541518
1.06358e-05	0.0030267776686111335
1.06360e-05	0.003022854491668115
1.06363e-05	0.003018931314725123
1.06365e-05	0.0030150081377821043
1.06368e-05	0.003011084960839086
1.06370e-05	0.0030071617838960943
1.06373e-05	0.0030032386069530756
1.06375e-05	0.002999315430010057
1.06377e-05	0.002996331685914554
1.06380e-05	0.0029940466111393125
1.06383e-05	0.002991761536364071
1.06385e-05	0.0029894764615888453
1.06388e-05	0.002987191386813604
1.06390e-05	0.002984906312038363
1.06392e-05	0.0029826212372631366
1.06395e-05	0.0029803361624878956
1.06398e-05	0.002978051087712654
1.06400e-05	0.0029757660129374128
1.06403e-05	0.002973480938162187
1.06405e-05	0.0029711958633869455
1.06408e-05	0.002968910788611704
1.06410e-05	0.0029666257138364783
1.06413e-05	0.002964340639061237
1.06415e-05	0.0029620555642859954
1.06418e-05	0.0029597704895107696
1.06420e-05	0.002957485414735528
1.06423e-05	0.0029552003399602868
1.06425e-05	0.002952915265185061
1.06428e-05	0.00295063019040982
1.06430e-05	0.0029483451156345785
1.06433e-05	0.0029460600408593527
1.06435e-05	0.0029437749660841113
1.06438e-05	0.00294148989130887
1.06440e-05	0.002939204816533644
1.06443e-05	0.0029369197417584026
1.06445e-05	0.002934634666983161
1.06448e-05	0.0029340184728283156
1.06450e-05	0.0029346434484835435
1.06453e-05	0.002935268424138772
1.06455e-05	0.002935893399793996
1.06458e-05	0.002936518375449224
1.06460e-05	0.002937143351104452
1.06462e-05	0.002937768326759676
1.06465e-05	0.0029383933024149044
1.06468e-05	0.0029390182780701327
1.06470e-05	0.0029396432537253567
1.06473e-05	0.0029402682293805846
1.06475e-05	0.002940893205035813
1.06477e-05	0.002941518180691037
1.06480e-05	0.0029421431563462653
1.06483e-05	0.002942768132001493
1.06485e-05	0.0029433931076567215
1.06488e-05	0.0029440180833119455
1.06490e-05	0.002944643058967174
