Time(s)	Current(A)
5.00000e-07	-0.0005998559015731982
5.00250e-07	-0.0005855843610059255
5.00500e-07	-0.0005713128204386465
5.00750e-07	-0.0005570412798713677
5.01000e-07	-0.0005443521000810186
5.01250e-07	-0.0005323762314094183
5.01500e-07	-0.000520400362737823
5.01750e-07	-0.0005084244940662228
5.02000e-07	-0.0004964486253946224
5.02250e-07	-0.00048447275672302214
5.02500e-07	-0.0004724968880514218
5.02750e-07	-0.000461354194241319
5.03000e-07	-0.00045058708664470266
5.03250e-07	-0.00043981997904808174
5.03500e-07	-0.0004290528714514608
5.03750e-07	-0.0004182857638548399
5.04000e-07	-0.000407518656258219
5.04250e-07	-0.0003967515486616026
5.04500e-07	-0.0003861827610356942
5.04750e-07	-0.00037570337390696856
5.05000e-07	-0.0003652239867782429
5.05250e-07	-0.00035474459964951726
5.05500e-07	-0.0003442652125207916
5.05750e-07	-0.0003337858253920704
5.06000e-07	-0.0003236562298092334
5.06250e-07	-0.00031368431647090504
5.06500e-07	-0.0003037124031325766
5.06750e-07	-0.0002937404897942482
5.07000e-07	-0.00028376857645591983
5.07250e-07	-0.00027379666311759564
5.07500e-07	-0.0002641391275223068
5.07750e-07	-0.00025502400555637824
5.08000e-07	-0.0002460895128065953
5.08250e-07	-0.00023715502005681243
5.08500e-07	-0.00022881483190333155
5.08750e-07	-0.00022074254983210618
5.09000e-07	-0.00021267026776088083
5.09250e-07	-0.00020520127580286805
5.09500e-07	-0.00019800424050092568
5.09750e-07	-0.0001912873126518521
5.10000e-07	-0.00018508029992724787
5.10250e-07	-0.0001786959315690054
5.10500e-07	-0.00017079394437375688
5.10750e-07	-0.00016035150039609336
5.11000e-07	-0.00014717798163159832
5.11250e-07	-0.00013143670413926333
5.11500e-07	-0.00011332965154323244
5.11750e-07	-9.305880265967644e-05
5.12000e-07	-7.077629955112341e-05
5.12250e-07	-4.62589392932254e-05
5.12500e-07	-1.8833090280138485e-05
5.12750e-07	1.1975962806605116e-05
5.13000e-07	4.6121624964217246e-05
5.13250e-07	8.333561161604564e-05
5.13500e-07	0.00012332542071646004
5.13750e-07	0.00016579856353774182
5.14000e-07	0.00021049381229788295
5.14250e-07	0.0002573850404304258
5.14500e-07	0.00030672825177672255
5.14750e-07	0.0003586548543339589
5.15000e-07	0.00041364022593898215
5.15250e-07	0.00046964094338891544
5.15500e-07	0.0005278425792028674
5.15750e-07	0.0005870363652036752
5.16000e-07	0.0006475769255554812
5.16250e-07	0.0007087245972140269
5.16500e-07	0.0007709832298252335
5.16750e-07	0.0008337426716144732
5.17000e-07	0.0008969836100592613
5.17250e-07	0.0009604416019871235
5.17500e-07	0.0010236059054291253
5.17750e-07	0.0010860887161018489
5.18000e-07	0.0011475221320468574
5.18250e-07	0.0012076262676620625
5.18500e-07	0.00126623187235723
5.18750e-07	0.0013231208801153629
5.19000e-07	0.0013779471336433475
5.19250e-07	0.0014303101231809647
5.19500e-07	0.0014798032021114496
5.19750e-07	0.0015260198560286058
5.20000e-07	0.0015685368280652211
5.20250e-07	0.0016068261713808548
5.20500e-07	0.0016402973935251617
5.20750e-07	0.0016685586442198026
5.21000e-07	0.0016914780185404454
5.21250e-07	0.001709019729412025
5.21500e-07	0.001719282795591797
5.21750e-07	0.001727019117596145
5.22000e-07	0.0017271698110545844
5.22250e-07	0.0017239009852330059
5.22500e-07	0.0017127601444704274
5.22750e-07	0.0016980706845393283
5.23000e-07	0.0016757734490617459
5.23250e-07	0.0016500467106758897
5.23500e-07	0.0016172892625211683
5.23750e-07	0.0015813624464674797
5.24000e-07	0.001538956348862111
5.24250e-07	0.0014936294612321848
5.24500e-07	0.0014422730928176357
5.24750e-07	0.0013881986996979727
5.25000e-07	0.0013288895099247547
5.25250e-07	0.001267220530455068
5.25500e-07	0.0012004521372345129
5.25750e-07	0.001131384983465278
5.26000e-07	0.0010623178296960433
5.26250e-07	0.0009890284358598403
5.26500e-07	0.0009138357018816085
5.26750e-07	0.0008386429679033767
5.27000e-07	0.0007616177301132742
5.27250e-07	0.0006837664194304807
5.27500e-07	0.0006059151087476873
5.27750e-07	0.0005286042463983206
5.28000e-07	0.0004515370123105852
5.28250e-07	0.00037571187589903845
5.28500e-07	0.0003016654909586959
5.28750e-07	0.00022971156823912658
5.29000e-07	0.00016034607224409876
5.29250e-07	9.407968515796707e-05
5.29500e-07	3.142445779938141e-05
5.29750e-07	-2.7107613037259245e-05
5.30000e-07	-8.110198552761693e-05
5.30250e-07	-0.00013090128126410668
5.30500e-07	-0.0001778234847424942
5.30750e-07	-0.00022293644197208336
5.31000e-07	-0.00026637713451560025
5.31250e-07	-0.00030787117604749183
5.31500e-07	-0.00034709812830013533
5.31750e-07	-0.0003837375962471559
5.32000e-07	-0.0004175302004347645
5.32250e-07	-0.000448176706852303
5.32500e-07	-0.0004778138358983133
5.32750e-07	-0.0005058897618894564
5.33000e-07	-0.0005332619144340144
5.33250e-07	-0.0005588628084499617
5.33500e-07	-0.0005836652382843425
5.33750e-07	-0.0006061627150219584
5.34000e-07	-0.0006276211438406817
5.34250e-07	-0.0006467951951425914
5.34500e-07	-0.0006649394737744473
5.34750e-07	-0.0006830837524063034
5.35000e-07	-0.0006996768315801578
5.35250e-07	-0.0007155706468206701
5.35500e-07	-0.0007314644620611756
5.35750e-07	-0.0007442621346458728
5.36000e-07	-0.0007556640996182896
5.36250e-07	-0.0007670660645907065
5.36500e-07	-0.0007784680295631234
5.36750e-07	-0.0007898699945355354
5.37000e-07	-0.0008012719595079524
5.37250e-07	-0.0008126739244803692
5.37500e-07	-0.0008233052502068306
5.37750e-07	-0.0008306357910849077
5.38000e-07	-0.0008379663319629849
5.38250e-07	-0.0008452968728410589
5.38500e-07	-0.000852627413719136
5.38750e-07	-0.0008599579545972132
5.39000e-07	-0.0008672884954752903
5.39250e-07	-0.0008746190363533675
5.39500e-07	-0.0008807337496961306
5.39750e-07	-0.0008863003811399267
5.40000e-07	-0.0008907413471460942
5.40250e-07	-0.0008946748753514741
5.40500e-07	-0.000894133365374979
5.40750e-07	-0.000891574556601223
5.41000e-07	-0.0008831199915952615
5.41250e-07	-0.0008720076834655933
5.41500e-07	-0.0008567927638439395
5.41750e-07	-0.0008371829305299125
5.42000e-07	-0.0008139667342240073
5.42250e-07	-0.0007868808685078867
5.42500e-07	-0.0007551759002560996
5.42750e-07	-0.0007183460208522918
5.43000e-07	-0.0006764798338443015
5.43250e-07	-0.0006299164241350572
5.43500e-07	-0.0005790220704995926
5.43750e-07	-0.0005241629754190212
5.44000e-07	-0.00046567053805350817
5.44250e-07	-0.00040361685974956937
5.44500e-07	-0.00033776949283554123
5.44750e-07	-0.0002680486151609814
5.45000e-07	-0.000194746856492572
5.45250e-07	-0.00011831361463767908
5.45500e-07	-3.921528300087816e-05
5.45750e-07	4.2081773701096584e-05
5.46000e-07	0.00012513301166230926
5.46250e-07	0.00020965637335741764
5.46500e-07	0.0002959447543876862
5.46750e-07	0.0003828318682540456
5.47000e-07	0.0004705305071998543
5.47250e-07	0.0005586577227065883
5.47500e-07	0.0006465113519130969
5.47750e-07	0.0007335625239611321
5.48000e-07	0.0008192959832769719
5.48250e-07	0.0009032983170582277
5.48500e-07	0.0009852757377199729
5.48750e-07	0.0010648744442880026
5.49000e-07	0.0011415946096794013
5.49250e-07	0.0012148748552209532
5.49500e-07	0.001284147314870381
5.49750e-07	0.0013488442311031948
5.50000e-07	0.0014084461525337441
5.50250e-07	0.0014628264461635685
5.50500e-07	0.0015124098630115135
5.50750e-07	0.0015575957113501291
5.51000e-07	0.0015967800227487516
5.51250e-07	0.0016338613877566587
5.51500e-07	0.0016642378687053002
5.51750e-07	0.0016915918604596533
5.52000e-07	0.001711836263816376
5.52250e-07	0.0017288757416415337
5.52500e-07	0.0017395777669857795
5.52750e-07	0.0017474229373160358
5.53000e-07	0.0017480975481281278
5.53250e-07	0.001745539748287161
5.53500e-07	0.0017429819484461942
5.53750e-07	0.001731980952355487
5.54000e-07	0.0017171738547416754
5.54250e-07	0.001702366757127864
5.54500e-07	0.0016805229047910197
5.54750e-07	0.0016555069595551315
5.55000e-07	0.0016304910143192432
5.55250e-07	0.001599952093946584
5.55500e-07	0.0015669234761348844
5.55750e-07	0.0015338948583231845
5.56000e-07	0.0014964884097412724
5.56250e-07	0.0014571084824115533
5.56500e-07	0.0014177285550818508
5.56750e-07	0.0013759851843733835
5.57000e-07	0.001333176398959681
5.57250e-07	0.0012903676135459787
5.57500e-07	0.0012468447211017332
5.57750e-07	0.0012029999169339857
5.58000e-07	0.0011591551127662569
5.58250e-07	0.001116386149971739
5.58500e-07	0.0010741021648288326
5.58750e-07	0.0010318181796859262
5.59000e-07	0.0009927708930844439
5.59250e-07	0.0009551826751678559
5.59500e-07	0.0009175944572512838
5.59750e-07	0.0008840446833696754
5.60000e-07	0.0008523153963674397
5.60250e-07	0.0008234763598089
5.60500e-07	0.0007959402168809951
5.60750e-07	0.0007684040739531018
5.61000e-07	0.0007426339849194919
5.61250e-07	0.0007176600138746391
5.61500e-07	0.0006926860428297862
5.61750e-07	0.0006677120717849334
5.62000e-07	0.0006433416223994795
5.62250e-07	0.0006215561635391917
5.62500e-07	0.0005997707046788947
5.62750e-07	0.0005779852458185977
5.63000e-07	0.0005561997869583008
5.63250e-07	0.0005354463786590328
5.63500e-07	0.0005151582075870166
5.63750e-07	0.0004948700365149918
5.64000e-07	0.0004745818654429669
5.64250e-07	0.0004542936943709421
5.64500e-07	0.0004340055232989172
5.64750e-07	0.00041371735222689237
5.65000e-07	0.0003934291811548761
5.65250e-07	0.0003743356592145088
5.65500e-07	0.00035578067217788577
5.65750e-07	0.0003372256851412627
5.66000e-07	0.00031867069810463964
5.66250e-07	0.0003001157110680166
5.66500e-07	0.0002815607240314014
5.66750e-07	0.0002630057369947783
5.67000e-07	0.00024445074995815526
5.67250e-07	0.0002269025052517578
5.67500e-07	0.0002098080890959675
5.67750e-07	0.00019271367294018443
5.68000e-07	0.00017658101970660238
5.68250e-07	0.00016088191879312246
5.68500e-07	0.0001458917977324379
5.68750e-07	0.00013122127711900225
5.69000e-07	0.00011709594584846616
5.69250e-07	0.00010367102545879785
5.69500e-07	9.09768901005004e-05
5.69750e-07	7.911678688570744e-05
5.70000e-07	6.817604795135615e-05
5.70250e-07	5.810045893614084e-05
5.70500e-07	4.8654710672901155e-05
5.70750e-07	3.9646529962779376e-05
5.71000e-07	3.1052753152753895e-05
5.71250e-07	2.2925285756261737e-05
5.71500e-07	1.5324465542402796e-05
5.71750e-07	8.310611648586958e-06
5.72000e-07	1.932816364144253e-06
5.72250e-07	-3.847242209305675e-06
5.72500e-07	-9.181315542272193e-06
5.72750e-07	-1.4194184116125335e-05
5.73000e-07	-1.8904694206288104e-05
5.73250e-07	-2.3284666398730925e-05
5.73500e-07	-2.7300641442171744e-05
5.73750e-07	-3.091918009421705e-05
5.74000e-07	-3.411387809350975e-05
5.74250e-07	-3.69130807158058e-05
5.74500e-07	-3.9416185021060766e-05
5.74750e-07	-4.1705686796806703e-05
5.75000e-07	-4.3797713672945814e-05
5.75250e-07	-4.559878247141865e-05
5.75500e-07	-4.729661080978372e-05
5.75750e-07	-4.8742505732498904e-05
5.76000e-07	-4.981923354432592e-05
5.76250e-07	-5.078074042910343e-05
5.76500e-07	-5.153349578493438e-05
5.76750e-07	-5.2192148209979524e-05
5.77000e-07	-5.271481047859944e-05
5.77250e-07	-5.317616985596779e-05
5.77500e-07	-5.344682689131785e-05
5.77750e-07	-5.3631517374077e-05
5.78000e-07	-5.381620785683623e-05
5.78250e-07	-5.3841011305420184e-05
5.78500e-07	-5.3793739408800834e-05
5.78750e-07	-5.374646751218148e-05
5.79000e-07	-5.369757190451526e-05
5.79250e-07	-5.364172165386879e-05
5.79500e-07	-5.358587140322232e-05
5.79750e-07	-5.353002115257585e-05
5.80000e-07	-5.3425927452652456e-05
5.80250e-07	-5.3300086127736346e-05
5.80500e-07	-5.29037615188813e-05
5.80750e-07	-5.2089156937238645e-05
5.81000e-07	-5.085055536128891e-05
5.81250e-07	-4.920749181557975e-05
5.81500e-07	-4.7184415778480195e-05
5.81750e-07	-4.480578199033226e-05
5.82000e-07	-4.208974451116274e-05
5.82250e-07	-3.900719119814552e-05
5.82500e-07	-3.547292979836504e-05
5.82750e-07	-3.142826710846938e-05
5.83000e-07	-2.6881335853200006e-05
5.83250e-07	-2.1868532427502685e-05
5.83500e-07	-1.64293332280057e-05
5.83750e-07	-1.0603213274150075e-05
5.84000e-07	-4.425697633746718e-06
5.84250e-07	2.097295793931471e-06
5.84500e-07	8.994978843752234e-06
5.84750e-07	1.62799543256423e-05
5.85000e-07	2.3922970508096893e-05
5.85250e-07	3.187707260241212e-05
5.85500e-07	4.009337708735709e-05
5.85750e-07	4.857568984116057e-05
5.86000e-07	5.714331728777012e-05
5.86250e-07	6.594167985286599e-05
5.86500e-07	7.484405531308028e-05
5.86750e-07	8.374643077329458e-05
5.87000e-07	9.273443695590624e-05
5.87250e-07	0.0001017610445417443
5.87500e-07	0.00011078765212757855
5.87750e-07	0.00011981425971341661
5.88000e-07	0.0001284445809274863
5.88250e-07	0.00013689626053254564
5.88500e-07	0.00014534794013760496
5.88750e-07	0.0001537996197426643
5.89000e-07	0.00016152128753431816
5.89250e-07	0.00016891387389841856
5.89500e-07	0.00017630646026251892
5.89750e-07	0.00018289777088753808
5.90000e-07	0.00018912787507830117
5.90250e-07	0.0001948194851810982
5.90500e-07	0.00020026834797495126
5.90750e-07	0.00020571721076880663
5.91000e-07	0.000210814494609403
5.91250e-07	0.0002157532904615673
5.91500e-07	0.0002206920863137316
5.91750e-07	0.00022563088216589377
5.92000e-07	0.00023056967801805806
5.92250e-07	0.00023550847387022235
5.92500e-07	0.00024044726972238665
5.92750e-07	0.0002453184215060816
5.93000e-07	0.0002498998417227911
5.93250e-07	0.0002544812619394987
5.93500e-07	0.0002590626821562082
5.93750e-07	0.0002636441023729177
5.94000e-07	0.0002682255225896272
5.94250e-07	0.0002728069428063367
5.94500e-07	0.00027738836302304624
5.94750e-07	0.0002819395718422338
5.95000e-07	0.00028647716169027536
5.95250e-07	0.0002910147515383169
5.95500e-07	0.00029555234138635845
5.95750e-07	0.00030008993123439994
5.96000e-07	0.0003046275210824396
5.96250e-07	0.00030916511093048114
5.96500e-07	0.0003137027007785226
5.96750e-07	0.00031824029062656417
5.97000e-07	0.0003227778804746057
5.97250e-07	0.00032679071880963034
5.97500e-07	0.00033056700483981695
5.97750e-07	0.0003343432908700052
5.98000e-07	0.00033811957690019337
5.98250e-07	0.0003418958629303816
5.98500e-07	0.0003456721489605698
5.98750e-07	0.0003494484349907564
5.99000e-07	0.0003532247210209446
5.99250e-07	0.0003570010070511328
5.99500e-07	0.000360777293081321
5.99750e-07	0.0003638893255677143
6.00000e-07	0.000366701919743053
6.00250e-07	0.00037042432634316793
6.00500e-07	0.0003745568665412109
6.00750e-07	0.0003809058520764174
6.01000e-07	0.00038983296401535404
6.01250e-07	0.000400945620136133
6.01500e-07	0.00041409117084800865
6.01750e-07	0.0004291170066816067
6.02000e-07	0.00044590893241245585
6.02250e-07	0.00046464120166045847
6.02500e-07	0.00048583264782251265
6.02750e-07	0.0005098453610511452
6.03000e-07	0.0005374973184901765
6.03250e-07	0.0005663839179563811
6.03500e-07	0.000598389854246844
6.03750e-07	0.0006318019538299185
6.04000e-07	0.0006678276000874069
6.04250e-07	0.0007050314049100455
6.04500e-07	0.0007450986323483196
6.04750e-07	0.0007864566597226915
6.05000e-07	0.0008309314962745152
6.05250e-07	0.0008768113566831194
6.05500e-07	0.0009226912170917235
6.05750e-07	0.0009708315025545051
6.06000e-07	0.0010199907631763994
6.06250e-07	0.0010691500237983147
6.06500e-07	0.0011195223275318857
6.06750e-07	0.0011704414579764124
6.07000e-07	0.00122178009754772
6.07250e-07	0.001273307847294736
6.07500e-07	0.0013246182996593482
6.07750e-07	0.0013753990104464764
6.08000e-07	0.0014253477084467598
6.08250e-07	0.00147423265885015
6.08500e-07	0.0015219067592205503
6.08750e-07	0.0015681844698334018
6.09000e-07	0.0016127809649739463
6.09250e-07	0.0016553693679642548
6.09500e-07	0.0016956183246258421
6.09750e-07	0.001733196436710033
6.10000e-07	0.0017677411356063755
6.10250e-07	0.0017986746491602168
6.10500e-07	0.001825213693210252
6.10750e-07	0.001846810248990128
6.11000e-07	0.0018633125744080008
6.11250e-07	0.0018747248651105066
6.11500e-07	0.0018793296803676612
6.11750e-07	0.001881577834855122
6.12000e-07	0.0018768004151103544
6.12250e-07	0.0018688559425105796
6.12500e-07	0.00185336937306016
6.12750e-07	0.0018344829079465499
6.13000e-07	0.0018082159548922793
6.13250e-07	0.0017786219577229933
6.13500e-07	0.0017423004079161388
6.13750e-07	0.0017029461501648826
6.14000e-07	0.0016574647160741765
6.14250e-07	0.0016092212171788592
6.14500e-07	0.0015551557853867846
6.14750e-07	0.0014984658892316358
6.15000e-07	0.0014356270843240402
6.15250e-07	0.0013700164178751689
6.15500e-07	0.0013044057514262975
6.15750e-07	0.0012334707641563365
6.16000e-07	0.00116013563066339
6.16250e-07	0.0010868004971704434
6.16500e-07	0.0010101743541643402
6.16750e-07	0.0009320646596747519
6.17000e-07	0.0008539549651851636
6.17250e-07	0.0007750874848584001
6.17500e-07	0.0006958784028745855
6.17750e-07	0.0006166693208907709
6.18000e-07	0.000538938778549619
6.18250e-07	0.00046187474588323373
6.18500e-07	0.00038656024601932095
6.18750e-07	0.000313601076176937
6.19000e-07	0.00024326708483609643
6.19250e-07	0.00017607487102255963
6.19500e-07	0.00011254343084650972
6.19750e-07	5.3191696908917185e-05
6.20000e-07	-1.5652887555725426e-06
6.20250e-07	-5.2118160666480674e-05
6.20500e-07	-9.989149034076778e-05
6.20750e-07	-0.00014603480542520176
6.21000e-07	-0.00019069998514094848
6.21250e-07	-0.00023359908527787094
6.21500e-07	-0.00027439496550397935
6.21750e-07	-0.0003127505407333881
6.22000e-07	-0.0003483938273372878
6.22250e-07	-0.00038112151566179587
6.22500e-07	-0.00041292535212574644
6.22750e-07	-0.0004435030391612732
6.23000e-07	-0.0004735279913000473
6.23250e-07	-0.0005020774897988085
6.23500e-07	-0.000529961869759405
6.23750e-07	-0.0005557755653485814
6.24000e-07	-0.0005806558188256035
6.24250e-07	-0.0006035400538153711
6.24500e-07	-0.0006255245052657786
6.24750e-07	-0.0006475089567161861
6.25000e-07	-0.0006663793272428622
6.25250e-07	-0.0006838459037799795
6.25500e-07	-0.0007013124803170969
6.25750e-07	-0.0007187790568542069
6.26000e-07	-0.0007362456333913243
6.26250e-07	-0.0007537122099284415
6.26500e-07	-0.0007711787864655589
6.26750e-07	-0.0007886453630026762
6.27000e-07	-0.0008061119395397862
6.27250e-07	-0.0008235785160769036
6.27500e-07	-0.0008367686111191478
6.27750e-07	-0.000848030914570224
6.28000e-07	-0.0008592932180213001
6.28250e-07	-0.0008705555214723763
6.28500e-07	-0.0008818178249234476
6.28750e-07	-0.0008930801283745238
6.29000e-07	-0.0009043424318255999
6.29250e-07	-0.0009156047352766761
6.29500e-07	-0.0009268670387277523
6.29750e-07	-0.0009381293421788284
6.30000e-07	-0.0009446844571316979
6.30250e-07	-0.0009491176224360609
6.30500e-07	-0.0009535507877404237
6.30750e-07	-0.0009579839530447866
6.31000e-07	-0.0009624171183491494
6.31250e-07	-0.0009668502836535104
6.31500e-07	-0.0009712834489578732
6.31750e-07	-0.0009757166142622361
6.32000e-07	-0.0009801497795665988
6.32250e-07	-0.0009845829448709618
6.32500e-07	-0.0009890161101753247
6.32750e-07	-0.0009934492754796855
6.33000e-07	-0.0009966376086489104
6.33250e-07	-0.0009944941045508528
6.33500e-07	-0.000992350600452795
6.33750e-07	-0.0009902070963547374
6.34000e-07	-0.0009880635922566796
6.34250e-07	-0.000985920088158623
6.34500e-07	-0.0009837765840605651
6.34750e-07	-0.0009816330799625075
6.35000e-07	-0.0009794895758644497
6.35250e-07	-0.0009773460717663921
6.35500e-07	-0.0009752025676683352
6.35750e-07	-0.0009730590635702775
6.36000e-07	-0.0009709155594722198
6.36250e-07	-0.0009671887096541851
6.36500e-07	-0.0009627481047155967
6.36750e-07	-0.0009583074997770082
6.37000e-07	-0.001008295697167699
6.37250e-07	-0.004674666021243076
6.37500e-07	-0.013701135897111949
6.37750e-07	-0.014161669003206038
6.38000e-07	-0.012256066743894782
6.38250e-07	-0.008400972565645547
6.38500e-07	-0.0012708262209582663
6.38750e-07	0.0005191379912905191
6.39000e-07	0.0001685551861647015
6.39250e-07	-0.002294910795360577
6.39500e-07	-0.007853516245900251
6.39750e-07	-0.008699752362753096
6.40000e-07	-0.007393169234053757
6.40250e-07	-0.005267687834711551
6.40500e-07	-0.0010846493020043521
6.40750e-07	0.001221157499813683
6.41000e-07	0.0013351260393798237
6.41250e-07	-0.000402500625643652
6.41500e-07	-0.0031542093344389685
6.41750e-07	-0.004542039018669149
6.42000e-07	-0.00411249627205268
6.42250e-07	-0.0025101253767675132
6.42500e-07	-0.0002592633144734278
6.42750e-07	0.0011418295479951593
6.43000e-07	0.0012157708802541308
6.43250e-07	0.0001337308249437098
6.43500e-07	-0.0015800822238609031
6.43750e-07	-0.0024365704561544175
6.44000e-07	-0.0021521612218326253
6.44250e-07	-0.0011310502716422276
