Time(s)	Current(A)
1.32500e-05	-0.005954716077496371
1.32503e-05	-0.0059494446936900845
1.32505e-05	-0.005944173309883799
1.32508e-05	-0.005938901926077548
1.32510e-05	-0.005933630542271261
1.32513e-05	-0.005928359158464975
1.32515e-05	-0.005923087774658725
1.32518e-05	-0.005917816390852438
1.32520e-05	-0.005912545007046152
1.32523e-05	-0.005912124989233556
1.32525e-05	-0.005913320317249587
1.32528e-05	-0.005914515645265619
1.32530e-05	-0.005915710973281643
1.32533e-05	-0.005916906301297675
1.32535e-05	-0.0059181016293137064
1.32538e-05	-0.005919296957329739
1.32540e-05	-0.005920492285345762
1.32543e-05	-0.005921687613361795
1.32545e-05	-0.005924304489582545
1.32548e-05	-0.00593118132890733
1.32550e-05	-0.005938058168232162
1.32553e-05	-0.005944935007556994
1.32555e-05	-0.0059518118468817795
1.32558e-05	-0.005958688686206612
1.32560e-05	-0.005965565525531443
1.32563e-05	-0.005972442364856228
1.32565e-05	-0.00597931920418106
1.32568e-05	-0.0059861960435058925
1.32570e-05	-0.005993516534356653
1.32573e-05	-0.006002166518731295
1.32575e-05	-0.0060108165031059375
1.32578e-05	-0.006019466487480521
1.32580e-05	-0.0060281164718551635
1.32583e-05	-0.0060367664562298055
1.32585e-05	-0.006045416440604389
1.32588e-05	-0.0060540664249790314
1.32590e-05	-0.006062716409353674
1.32593e-05	-0.006071366393728258
1.32595e-05	-0.00607906969172135
1.32598e-05	-0.006083936048241633
1.32600e-05	-0.006088802404761883
1.32603e-05	-0.006093668761282167
1.32605e-05	-0.00609853511780245
1.32608e-05	-0.0061034014743227
1.32610e-05	-0.0061082678308429835
1.32613e-05	-0.0061131341873632665
1.32615e-05	-0.0061180005438835165
1.32618e-05	-0.0061228669004038
1.32620e-05	-0.006121998313357504
1.32623e-05	-0.006119220178117422
1.32625e-05	-0.0061164420428773585
1.32628e-05	-0.006113663907637277
1.32630e-05	-0.006110885772397195
1.32633e-05	-0.0061081076371571315
1.32635e-05	-0.00610532950191705
1.32638e-05	-0.006102551366676968
1.32640e-05	-0.0060997732314369045
1.32643e-05	-0.006095287118991556
1.32645e-05	-0.006085682699720404
1.32648e-05	-0.006076078280449318
1.32650e-05	-0.006066473861178167
1.32653e-05	-0.006056869441907016
1.32655e-05	-0.006047265022635929
1.32658e-05	-0.0060376606033647785
1.32660e-05	-0.006028056184093627
1.32663e-05	-0.0060184517648225406
1.32665e-05	-0.006008096805990362
1.32668e-05	-0.00599549270018666
1.32670e-05	-0.005982888594383044
1.32673e-05	-0.005970284488579343
1.32675e-05	-0.005957680382775641
1.32678e-05	-0.005945076276972025
1.32680e-05	-0.005932472171168323
1.32683e-05	-0.005919868065364622
1.32685e-05	-0.005907263959561006
1.32688e-05	-0.005895232838354262
1.32690e-05	-0.005884918783959232
1.32693e-05	-0.005874604729564271
1.32695e-05	-0.00586429067516924
1.32698e-05	-0.00585397662077421
1.32700e-05	-0.005843662566379249
1.32703e-05	-0.005833348511984219
1.32705e-05	-0.005823034457589188
1.32708e-05	-0.005812720403194158
1.32710e-05	-0.005802406348799197
1.32713e-05	-0.005796743579425883
1.32715e-05	-0.005792629535477985
1.32718e-05	-0.005788515491530116
1.32720e-05	-0.0057844014475822185
1.32723e-05	-0.005780287403634321
1.32725e-05	-0.0057761733596864515
1.32728e-05	-0.005772059315738554
1.32730e-05	-0.005767945271790657
1.32733e-05	-0.005763831227842787
1.32735e-05	-0.0057612698443073864
1.32738e-05	-0.005763361328717811
1.32740e-05	-0.005765452813128222
1.32743e-05	-0.005767544297538647
1.32745e-05	-0.005769635781949072
1.32748e-05	-0.005771727266359482
1.32750e-05	-0.005773818750769907
1.32753e-05	-0.005775910235180332
1.32755e-05	-0.0057780017195907425
1.32758e-05	-0.0057800932040011676
1.32760e-05	-0.005782184688411593
1.32763e-05	-0.005786824738360532
1.32765e-05	-0.005792313377082296
1.32768e-05	-0.0057978020158040615
1.32770e-05	-0.005803290654525789
1.32773e-05	-0.005808779293247554
1.32775e-05	-0.005814267931969318
1.32778e-05	-0.005819756570691046
1.32780e-05	-0.005825245209412811
1.32783e-05	-0.005830733848134576
1.32785e-05	-0.005836222486856303
1.32788e-05	-0.005841665623312714
1.32790e-05	-0.005846972402823167
1.32793e-05	-0.005852279182333621
1.32795e-05	-0.005857585961844038
1.32798e-05	-0.005862892741354491
1.32800e-05	-0.005866814884874065
1.32803e-05	-0.005870275990002171
1.32805e-05	-0.0058737370951303
1.32808e-05	-0.005877198200258429
1.32810e-05	-0.005879325639981061
1.32813e-05	-0.005877456475573803
1.32815e-05	-0.0058755873111665455
1.32818e-05	-0.005872316788319411
1.32820e-05	-0.005864846805168833
1.32823e-05	-0.005857376822018254
1.32825e-05	-0.005847803115325465
1.32828e-05	-0.005831925166082223
1.32830e-05	-0.005816047216838981
1.32833e-05	-0.0058001692675958465
1.32835e-05	-0.005784291318352604
1.32838e-05	-0.005768413369109362
1.32840e-05	-0.005744506590472257
1.32843e-05	-0.005717926474861353
1.32845e-05	-0.0056913463592504505
1.32848e-05	-0.005664766243639728
1.32850e-05	-0.005638186128028824
1.32853e-05	-0.0056096051838416105
1.32855e-05	-0.005575028343143125
1.32858e-05	-0.0055404515024444064
1.32860e-05	-0.005505874661745688
1.32863e-05	-0.005471297821047202
1.32865e-05	-0.005435736320499339
1.32868e-05	-0.0053972240831293245
1.32870e-05	-0.005358711845759571
1.32873e-05	-0.005320199608389557
1.32875e-05	-0.0052816873710195425
1.32878e-05	-0.005243031929676063
1.32880e-05	-0.005203947348018084
1.32883e-05	-0.005165020697354899
1.32885e-05	-0.005126741736908084
1.32888e-05	-0.005089194941293911
1.32890e-05	-0.005052521290138079
1.32893e-05	-0.005016880984736877
1.32895e-05	-0.004982704418970747
1.32898e-05	-0.004950237815527721
1.32900e-05	-0.004919878554432542
1.32903e-05	-0.004895834380389134
1.32905e-05	-0.004871790206345563
1.32908e-05	-0.004847746032301992
1.32910e-05	-0.004823701858258584
1.32913e-05	-0.0047996576842150125
1.32915e-05	-0.004775613510171441
1.32918e-05	-0.004751569336128032
1.32920e-05	-0.004727525162084461
1.32923e-05	-0.004709191248384161
1.32925e-05	-0.004692758664175672
1.32928e-05	-0.004676326079967071
1.32930e-05	-0.004659893495758471
1.32933e-05	-0.004643460911549982
1.32935e-05	-0.004627028327341381
1.32938e-05	-0.00461059574313278
1.32940e-05	-0.0045941631589242905
1.32943e-05	-0.004578696107986914
1.32945e-05	-0.00456612247712746
1.32948e-05	-0.00455354884626809
1.32950e-05	-0.004540975215408635
1.32953e-05	-0.004528401584549181
1.32955e-05	-0.004515827953689812
1.32958e-05	-0.004503764700346896
1.32960e-05	-0.004493230898756494
1.32963e-05	-0.004482697097166091
1.32965e-05	-0.0044721632955757595
1.32968e-05	-0.004461629493985356
1.32970e-05	-0.004451095692394953
1.32973e-05	-0.004440804836172696
1.32975e-05	-0.004431436563867275
1.32978e-05	-0.0044226512945406415
1.32980e-05	-0.004413866025214067
1.32983e-05	-0.004405080755887433
1.32985e-05	-0.004396295486560799
1.32988e-05	-0.004388572527107244
1.32990e-05	-0.00438120328201517
1.32993e-05	-0.004373834036923096
1.32995e-05	-0.004366464791831072
1.32998e-05	-0.004359286664020781
1.33000e-05	-0.0043527717878990594
1.33003e-05	-0.0043466301486998
1.33005e-05	-0.004340961325936318
1.33008e-05	-0.00433613922196646
1.33010e-05	-0.004332872570967357
1.33013e-05	-0.004331731933986168
1.33015e-05	-0.004333092327594608
1.33018e-05	-0.004336864649683075
1.33020e-05	-0.004341635764434496
1.33023e-05	-0.004349399967908447
1.33025e-05	-0.004358176770628007
1.33028e-05	-0.004369988036349924
1.33030e-05	-0.004383371213557622
1.33033e-05	-0.004401464948537128
1.33035e-05	-0.004419558683516758
1.33038e-05	-0.00443982661157003
1.33040e-05	-0.00446660995869967
1.33043e-05	-0.004493393305829492
1.33045e-05	-0.004520176652959313
1.33048e-05	-0.004546960000089135
1.33050e-05	-0.004575986608159379
1.33053e-05	-0.004611735611450509
1.33055e-05	-0.004647484614741639
1.33058e-05	-0.004683233618032527
1.33060e-05	-0.0047189826213236575
1.33063e-05	-0.00475588204889784
1.33065e-05	-0.004796228960695488
1.33068e-05	-0.004836575872493408
1.33070e-05	-0.004877369022366393
1.33073e-05	-0.004919499416894417
1.33075e-05	-0.004961629811422726
1.33078e-05	-0.0050037204756158945
1.33080e-05	-0.005045692079644948
1.33083e-05	-0.005087663683674285
1.33085e-05	-0.005129061935858383
1.33088e-05	-0.0051687420206926096
1.33090e-05	-0.005208422105527106
1.33093e-05	-0.0052470667549117935
1.33095e-05	-0.005282608507885745
1.33098e-05	-0.005318150260859937
1.33100e-05	-0.00535048350668083
1.33103e-05	-0.005373201797430041
1.33105e-05	-0.005395920088179406
1.33108e-05	-0.005418638378928771
1.33110e-05	-0.005441356669677983
1.33113e-05	-0.005464074960427348
1.33115e-05	-0.005486793251176713
1.33118e-05	-0.005509511541925925
1.33120e-05	-0.00553222983267529
1.33123e-05	-0.005554948123424656
1.33125e-05	-0.005565553517330812
1.33128e-05	-0.0055721257136889454
1.33130e-05	-0.005578697910047078
1.33133e-05	-0.005585270106405212
1.33135e-05	-0.0055918423027633
1.33138e-05	-0.005598414499121434
1.33140e-05	-0.005604986695479567
1.33143e-05	-0.005611558891837656
1.33145e-05	-0.005618131088195789
1.33148e-05	-0.005621957513741008
1.33150e-05	-0.005617555669332258
1.33153e-05	-0.005613153824923478
1.33155e-05	-0.005608751980514698
1.33158e-05	-0.005604350136105947
1.33160e-05	-0.005599948291697167
1.33163e-05	-0.005595546447288386
1.33165e-05	-0.005591144602879635
1.33168e-05	-0.005586742758470855
1.33170e-05	-0.005581182365061759
1.33173e-05	-0.0055721501400324775
1.33175e-05	-0.005563117915003134
1.33178e-05	-0.005554085689973792
1.33180e-05	-0.00554505346494451
1.33183e-05	-0.005536021239915167
1.33185e-05	-0.005526989014885824
1.33188e-05	-0.005517956789856542
1.33190e-05	-0.0055089245648272
1.33193e-05	-0.005500016272626051
1.33195e-05	-0.005491479370768937
1.33198e-05	-0.0054829424689117655
1.33200e-05	-0.005474405567054593
1.33203e-05	-0.005466643206074397
1.33205e-05	-0.005459138741814229
1.33208e-05	-0.005451634277554059
1.33210e-05	-0.00544340292459244
1.33213e-05	-0.005432993299345319
1.33215e-05	-0.005421515596081107
1.33218e-05	-0.005406837176203021
1.33220e-05	-0.005392158756325036
1.33223e-05	-0.005376400743235006
1.33225e-05	-0.005357407505868726
1.33228e-05	-0.005338414268502576
1.33230e-05	-0.00531785061487912
1.33233e-05	-0.0052925808842416485
1.33235e-05	-0.005267311153604349
1.33238e-05	-0.00524029770270313
1.33240e-05	-0.005208058833499668
1.33243e-05	-0.005175819964296426
1.33245e-05	-0.005143581095092964
1.33248e-05	-0.005111342225889502
1.33250e-05	-0.005073748799454133
1.33253e-05	-0.005034372480999391
1.33255e-05	-0.0049949961625446486
1.33258e-05	-0.004955619844090173
1.33260e-05	-0.0049152835894739795
1.33263e-05	-0.004872070687673109
1.33265e-05	-0.004828630472430251
1.33268e-05	-0.00478437181520925
1.33270e-05	-0.0047395630943455926
1.33273e-05	-0.0046942434626065675
1.33275e-05	-0.004648611777313608
1.33278e-05	-0.004602939285975026
1.33280e-05	-0.004557496537799055
1.33283e-05	-0.004512554431526743
1.33285e-05	-0.0044683722136243005
1.33288e-05	-0.004425144741661735
1.33290e-05	-0.0043829871497202775
1.33293e-05	-0.004342039974019706
1.33295e-05	-0.004302542693635282
1.33298e-05	-0.004264781108085636
1.33300e-05	-0.00422904055122891
1.33303e-05	-0.004195606007772935
1.33305e-05	-0.004164712246078427
1.33308e-05	-0.004136326923080062
1.33310e-05	-0.0041100429135819344
1.33313e-05	-0.004085474613720234
1.33315e-05	-0.0040625856329816945
1.33318e-05	-0.004041511827567433
1.33320e-05	-0.004022387773973302
1.33323e-05	-0.004005624120558945
1.33325e-05	-0.003991323895256368
1.33328e-05	-0.003977973294869776
1.33330e-05	-0.003967468441889401
1.33333e-05	-0.003957907135821546
1.33335e-05	-0.003951173363166263
1.33338e-05	-0.003944439590510935
1.33340e-05	-0.003939237995121037
1.33343e-05	-0.003938627885702408
1.33345e-05	-0.003938017776283776
1.33348e-05	-0.003937407666865144
1.33350e-05	-0.003936797557446516
1.33353e-05	-0.003937614221452177
1.33355e-05	-0.003942706507025673
1.33358e-05	-0.0039477987925991345
1.33360e-05	-0.003952891078172631
1.33363e-05	-0.003957983363746127
1.33365e-05	-0.003963917606192414
1.33368e-05	-0.003972374946492497
1.33370e-05	-0.00398083228679258
1.33373e-05	-0.00398959640120504
1.33375e-05	-0.003999279827674605
1.33378e-05	-0.004008963254144169
1.33380e-05	-0.004018802261965027
1.33383e-05	-0.004029107501473576
1.33385e-05	-0.0040394127409821255
1.33388e-05	-0.004049689396398164
1.33390e-05	-0.004059880393670824
1.33393e-05	-0.0040698284649942984
1.33395e-05	-0.004079048558482992
1.33398e-05	-0.0040882686519716225
1.33400e-05	-0.004096517886369856
1.33403e-05	-0.004101857740766739
1.33405e-05	-0.004107197595163585
1.33408e-05	-0.004112537449560468
1.33410e-05	-0.00411787730395735
1.33413e-05	-0.004123217158354197
1.33415e-05	-0.00412855701275108
1.33418e-05	-0.0041338968671479626
1.33420e-05	-0.004139236721544809
1.33423e-05	-0.0041445765759416915
1.33425e-05	-0.004149916430338575
1.33428e-05	-0.004155256284735421
1.33430e-05	-0.0041595176527778445
1.33433e-05	-0.004160547113468761
1.33435e-05	-0.00416157657415967
1.33438e-05	-0.004162606034850586
1.33440e-05	-0.0041636354955415025
1.33443e-05	-0.004164664956232411
1.33445e-05	-0.004165694416923328
1.33448e-05	-0.004166723877614244
1.33450e-05	-0.004167753338305153
1.33453e-05	-0.004168782798996069
1.33455e-05	-0.004169812259686986
1.33458e-05	-0.004170841720377894
1.33460e-05	-0.004171349058572031
1.33463e-05	-0.004170291748749127
1.33465e-05	-0.0041692344389262295
1.33468e-05	-0.004168177129103325
1.33470e-05	-0.004167119819280421
1.33473e-05	-0.004166062509457516
1.33475e-05	-0.004165005199634619
1.33478e-05	-0.004163947889811714
1.33480e-05	-0.004162890579988809
1.33483e-05	-0.004161716629462355
1.33485e-05	-0.0041601931409507124
1.33488e-05	-0.004158669652439071
1.33490e-05	-0.00415714616392744
1.33493e-05	-0.004155622675415797
1.33495e-05	-0.004154099186904156
1.33498e-05	-0.004152575698392524
1.33500e-05	-0.004151052209880882
1.33503e-05	-0.004149528721369241
1.33505e-05	-0.004147923647799026
1.33508e-05	-0.004146074087731969
1.33510e-05	-0.004144224527664911
1.33513e-05	-0.004142374967597865
1.33515e-05	-0.0041405254075308085
1.33518e-05	-0.004138675847463751
1.33520e-05	-0.004136826287396705
1.33523e-05	-0.004134976727329648
1.33525e-05	-0.00413312716726259
1.33528e-05	-0.004131277607195546
1.33530e-05	-0.004129116239730341
1.33533e-05	-0.004126020476926191
1.33535e-05	-0.004122924714122061
1.33538e-05	-0.004119828951317911
1.33540e-05	-0.00411673318851376
1.33543e-05	-0.004113637425709631
1.33545e-05	-0.004110541662905479
1.33548e-05	-0.004107445900101329
1.33550e-05	-0.004104350137297199
1.33553e-05	-0.004101254374493049
1.33555e-05	-0.004097938101818244
1.33557e-05	-0.004093961025722578
1.33560e-05	-0.004089983949626884
1.33563e-05	-0.0040860068735311915
1.33565e-05	-0.004082029797435498
1.33568e-05	-0.004078052721339832
1.33570e-05	-0.004074075645244138
1.33573e-05	-0.004070098569148445
1.33575e-05	-0.004066121493052779
1.33578e-05	-0.004062212148184745
1.33580e-05	-0.004058325355595109
1.33583e-05	-0.004054438563005499
1.33585e-05	-0.0040505517704158625
1.33588e-05	-0.0040466649778262255
1.33590e-05	-0.0040427781852366155
1.33593e-05	-0.004038891392646979
1.33595e-05	-0.004035004600057342
1.33598e-05	-0.004031236278844686
1.33600e-05	-0.004027864226590006
1.33603e-05	-0.004024662261437129
1.33605e-05	-0.0040216946803277205
1.33608e-05	-0.004019247125347105
1.33610e-05	-0.004017878389272694
1.33613e-05	-0.004018236865100053
1.33615e-05	-0.004020410571989213
1.33618e-05	-0.004023330242134559
1.33620e-05	-0.004028485345415682
1.33623e-05	-0.004034325709593555
1.33625e-05	-0.004042219599735996
1.33628e-05	-0.004051171722693895
1.33630e-05	-0.004063295059088523
1.33633e-05	-0.004075418395483151
1.33635e-05	-0.004089307731678991
1.33638e-05	-0.004108489251425772
1.33640e-05	-0.004127670771172552
1.33642e-05	-0.004146852290919202
1.33645e-05	-0.004166033810665983
1.33648e-05	-0.004185215330412763
1.33650e-05	-0.0042098784055173
1.33653e-05	-0.00423636665885589
1.33655e-05	-0.004262854912194661
1.33658e-05	-0.004289343165533431
1.33660e-05	-0.004315831418872022
1.33663e-05	-0.004343387584286264
1.33665e-05	-0.004374143969041439
1.33668e-05	-0.004404900353796404
1.33670e-05	-0.004435656738551579
1.33673e-05	-0.004466413123306753
1.33675e-05	-0.004497169508061719
1.33678e-05	-0.004527823382338469
1.33680e-05	-0.004558170062771027
1.33683e-05	-0.00458851674320338
1.33685e-05	-0.004618863423635938
1.33688e-05	-0.004649210104068496
1.33690e-05	-0.0046795567845008485
1.33693e-05	-0.004708912342596133
1.33695e-05	-0.004735297797677993
1.33698e-05	-0.004761683252759675
1.33700e-05	-0.00478593797264941
1.33703e-05	-0.004803807503973446
1.33705e-05	-0.00482167703529736
1.33708e-05	-0.004839546566621395
1.33710e-05	-0.00485741609794543
1.33713e-05	-0.004875285629269345
1.33715e-05	-0.0048931551605933795
1.33718e-05	-0.004911024691917415
1.33720e-05	-0.00492889422324133
1.33723e-05	-0.004946763754565365
1.33725e-05	-0.004958669210821654
1.33727e-05	-0.004968588825597772
1.33730e-05	-0.0049785084403739565
1.33733e-05	-0.004988428055150141
1.33735e-05	-0.0049983476699263256
1.33738e-05	-0.005008267284702443
1.33740e-05	-0.005018186899478628
1.33743e-05	-0.005028106514254812
1.33745e-05	-0.00503802612903093
1.33748e-05	-0.005046797118072825
1.33750e-05	-0.005052126012605016
1.33753e-05	-0.00505745490713717
1.33755e-05	-0.005062783801669361
1.33758e-05	-0.005068112696201551
1.33760e-05	-0.005073441590733706
1.33763e-05	-0.005078770485265896
1.33765e-05	-0.005084099379798086
1.33768e-05	-0.005089428274330241
1.33770e-05	-0.005094757168862431
1.33773e-05	-0.005098229269011136
1.33775e-05	-0.005100870309962275
1.33778e-05	-0.005103511350913431
1.33780e-05	-0.005106152391864588
1.33783e-05	-0.005108793432815726
1.33785e-05	-0.005111434473766883
1.33788e-05	-0.00511407551471804
1.33790e-05	-0.0051167165556691785
1.33793e-05	-0.0051193575966203345
1.33795e-05	-0.0051216210474784064
1.33798e-05	-0.006533175402875383
1.33800e-05	-0.01157828340194202
1.33803e-05	-0.01507417237663082
1.33805e-05	-0.014938674617660483
1.33808e-05	-0.012956255990908171
1.33810e-05	-0.009072662615783947
1.33812e-05	-0.0057957879421741765
1.33815e-05	-0.005135135509251812
1.33818e-05	-0.006284982162018887
1.33820e-05	-0.008909271860290726
1.33823e-05	-0.011183234860472157
1.33825e-05	-0.011433495030166599
1.33828e-05	-0.010022611015814815
1.33830e-05	-0.007812189581927073
1.33833e-05	-0.005874817716784154
1.33835e-05	-0.0051783993551271276
1.33838e-05	-0.005835519637137506
1.33840e-05	-0.007433129525449511
1.33843e-05	-0.00866946087141222
1.33845e-05	-0.008818104347004908
1.33848e-05	-0.007725226463192002
1.33850e-05	-0.006084315994623446
1.33853e-05	-0.0048231706472564575
1.33855e-05	-0.004300376675187818
1.33858e-05	-0.00479820065115862
1.33860e-05	-0.0058674486016226535
1.33863e-05	-0.0067155846435229555
1.33865e-05	-0.00689884751989571
1.33868e-05	-0.006221396238643894
1.33870e-05	-0.005179694631919509
1.33873e-05	-0.00437590056473192
1.33875e-05	-0.00403524849266982
1.33878e-05	-0.0043345651867181005
1.33880e-05	-0.004992496622610051
1.33883e-05	-0.005512658457104434
1.33885e-05	-0.005617172543689244
1.33888e-05	-0.005183478101367253
1.33890e-05	-0.004522665213532237
1.33893e-05	-0.004011999509467331
1.33895e-05	-0.0037926199563539723
1.33897e-05	-0.003975331020665436
1.33900e-05	-0.004383937820935279
1.33903e-05	-0.0047075722087279
1.33905e-05	-0.004772269139401004
1.33908e-05	-0.004501510801649671
1.33910e-05	-0.004090575013560344
1.33913e-05	-0.0037760028985744966
1.33915e-05	-0.0036461445109233614
1.33918e-05	-0.0037702631652013208
1.33920e-05	-0.004037845071252493
1.33923e-05	-0.004254033098844976
1.33925e-05	-0.004309737335350886
1.33928e-05	-0.0041569188222478695
1.33930e-05	-0.003917785978312147
1.33933e-05	-0.003740383315006136
1.33935e-05	-0.003679918969953172
1.33938e-05	-0.0037796404308572183
1.33940e-05	-0.003970185638918231
1.33943e-05	-0.004129366848862016
1.33945e-05	-0.0041887313262227435
1.33948e-05	-0.0041180717407472735
1.33950e-05	-0.003993823635947634
1.33953e-05	-0.0039085954875550865
1.33955e-05	-0.0038968397912928
1.33958e-05	-0.003985513369949169
1.33960e-05	-0.0041310355283451505
1.33963e-05	-0.0042567405171943995
