Time(s)	Current(A)
9.75000e-06	-0.013272035113546798
9.75025e-06	-0.013280946835783009
9.75050e-06	-0.013289858558019218
9.75075e-06	-0.013296399126108352
9.75100e-06	-0.01330121889289913
9.75125e-06	-0.013306038659689908
9.75150e-06	-0.013310858426480688
9.75175e-06	-0.013315678193271433
9.75200e-06	-0.013320497960062211
9.75225e-06	-0.013325317726852989
9.75250e-06	-0.013330137493643736
9.75275e-06	-0.013334957260434514
9.75300e-06	-0.013339777027225292
9.75325e-06	-0.013344596794016039
9.75350e-06	-0.013349416560806817
9.75375e-06	-0.013354236327597595
9.75400e-06	-0.013358647630737415
9.75425e-06	-0.013358327372187069
9.75450e-06	-0.013358007113636723
9.75475e-06	-0.013357686855086379
9.75500e-06	-0.013357366596536033
9.75525e-06	-0.013357046337985687
9.75550e-06	-0.013356726079435343
9.75575e-06	-0.013356405820884997
9.75600e-06	-0.013356085562334651
9.75625e-06	-0.013355765303784307
9.75650e-06	-0.013355445045233961
9.75675e-06	-0.013355124786683615
9.75700e-06	-0.013354804528133271
9.75725e-06	-0.013354484269582925
9.75750e-06	-0.01335416401103258
9.75775e-06	-0.013353843752482235
9.75800e-06	-0.013353331494426447
9.75825e-06	-0.013350595152286905
9.75850e-06	-0.01334785881014738
9.75875e-06	-0.013345122468007837
9.75900e-06	-0.013342386125868293
9.75925e-06	-0.013339649783728768
9.75950e-06	-0.013336913441589226
9.75975e-06	-0.013334177099449682
9.76000e-06	-0.013331440757310138
9.76025e-06	-0.013328704415170613
9.76050e-06	-0.013325968073031071
9.76075e-06	-0.013323231730891527
9.76100e-06	-0.013320495388752003
9.76125e-06	-0.013317759046612459
9.76150e-06	-0.013315022704472917
9.76175e-06	-0.013312286362333392
9.76200e-06	-0.01330953285920886
9.76225e-06	-0.013306580566647328
9.76250e-06	-0.013303414287550275
9.76275e-06	-0.013297769230984673
9.76300e-06	-0.01329212417441907
9.76325e-06	-0.013285933370777318
9.76350e-06	-0.0132734207415465
9.76375e-06	-0.013260908112315685
9.76400e-06	-0.013247906378052334
9.76425e-06	-0.013229238948366742
9.76450e-06	-0.01321057151868115
9.76475e-06	-0.013191082433986354
9.76500e-06	-0.01316207546107738
9.76525e-06	-0.013133068488168406
9.76550e-06	-0.013104061515259629
9.76575e-06	-0.013075054542350655
9.76600e-06	-0.013045131936993153
9.76625e-06	-0.013004602827455827
9.76650e-06	-0.012964073717918224
9.76675e-06	-0.012923544608380624
9.76700e-06	-0.012883015498843296
9.76725e-06	-0.01284186424948065
9.76750e-06	-0.012793506256116315
9.76775e-06	-0.012745148262752309
9.76800e-06	-0.012696542633136824
9.76825e-06	-0.012645068434437827
9.76850e-06	-0.012593468197324091
9.76875e-06	-0.012540407956280883
9.76900e-06	-0.01248726645265401
9.76925e-06	-0.012433155421751165
9.76950e-06	-0.012378714202157453
9.76975e-06	-0.012324253220328032
9.77000e-06	-0.012270086257961282
9.77025e-06	-0.012216525499346242
9.77050e-06	-0.012163867524725836
9.77075e-06	-0.012112321326815155
9.77100e-06	-0.012062030736136304
9.77125e-06	-0.012013217314637734
9.77150e-06	-0.011966199753462307
9.77175e-06	-0.011922001079855166
9.77200e-06	-0.01188805163283309
9.77225e-06	-0.011854102185811016
9.77250e-06	-0.011820152738789171
9.77275e-06	-0.011786203291767097
9.77300e-06	-0.011752253844745021
9.77325e-06	-0.011718304397723176
9.77350e-06	-0.011684354950701102
9.77375e-06	-0.011650405503679028
9.77400e-06	-0.011616456056657183
9.77425e-06	-0.011594429894429326
9.77450e-06	-0.01157315020195391
9.77475e-06	-0.011551870509478637
9.77500e-06	-0.01153059081700322
9.77525e-06	-0.011509311124527804
9.77550e-06	-0.011488031432052532
9.77575e-06	-0.011466751739577116
9.77600e-06	-0.0114454720471017
9.77625e-06	-0.011424192354626425
9.77650e-06	-0.011409781916753006
9.77675e-06	-0.020914447159904946
9.77700e-06	-0.03717911464056683
9.77725e-06	-0.030944829822448058
9.77750e-06	-0.02616917374963734
9.77775e-06	-0.016596179616324445
9.77800e-06	-0.0026460174583009884
9.77825e-06	-0.005077479450820845
9.77850e-06	-0.007542228994478508
9.77875e-06	-0.013996853068023434
9.77900e-06	-0.019717849218957854
9.77925e-06	-0.020078064709004664
9.77950e-06	-0.0168261132436625
9.77975e-06	-0.011355993354674186
9.78000e-06	-0.006763315014700482
9.78025e-06	-0.005761801499139718
9.78050e-06	-0.007603229538927648
9.78075e-06	-0.011890468343079885
9.78100e-06	-0.015586681743543803
9.78125e-06	-0.015899496322655523
9.78150e-06	-0.013930617682837682
9.78175e-06	-0.010558044362977786
9.78200e-06	-0.007724408345527805
9.78225e-06	-0.007132111418000009
9.78250e-06	-0.008314301169031143
9.78275e-06	-0.011023606563480904
9.78300e-06	-0.013358883716179324
9.78325e-06	-0.01357199272393869
9.78350e-06	-0.012353857588788429
9.78375e-06	-0.010255050006060244
9.78400e-06	-0.00849282592778053
9.78425e-06	-0.008133764527289963
9.78450e-06	-0.008885522864232966
9.78475e-06	-0.0105932094012556
9.78500e-06	-0.012066033352450838
9.78525e-06	-0.012209119477838544
9.78550e-06	-0.011455425790055363
9.78575e-06	-0.010149942297954486
9.78600e-06	-0.009055205238397757
9.78625e-06	-0.00883929099083638
9.78650e-06	-0.009319020455865027
9.78675e-06	-0.01039732011465455
9.78700e-06	-0.011328264565691791
9.78725e-06	-0.01142607356941495
9.78750e-06	-0.010962014805895221
9.78775e-06	-0.010152228369580142
9.78800e-06	-0.009474371757435034
9.78825e-06	-0.009346892228047382
9.78850e-06	-0.009654995576364934
9.78875e-06	-0.010337832120204242
9.78900e-06	-0.010928135698783864
9.78925e-06	-0.010996354853101303
9.78950e-06	-0.010712444478002113
9.78975e-06	-0.010211812603165447
9.79000e-06	-0.009793661909484446
9.79025e-06	-0.009720079211625434
9.79050e-06	-0.009919121328656811
9.79075e-06	-0.010352640727090552
9.79100e-06	-0.010727926630300798
9.79125e-06	-0.01077591775085329
9.79150e-06	-0.010603088957600532
9.79175e-06	-0.010294268349931116
9.79200e-06	-0.010036871838203294
9.79225e-06	-0.009995049132083102
9.79250e-06	-0.01012370812756356
9.79275e-06	-0.01039893063663382
9.79300e-06	-0.010637354950782243
9.79325e-06	-0.010670458897559769
9.79350e-06	-0.010564966228188276
9.79375e-06	-0.010374036063763345
9.79400e-06	-0.010215080248606848
9.79425e-06	-0.010190926599378947
9.79450e-06	-0.0102733317100507
9.79475e-06	-0.010447316681404355
9.79500e-06	-0.010598033900157549
9.79525e-06	-0.010619940980196356
9.79550e-06	-0.01055485550429948
9.79575e-06	-0.0104360951223759
9.79600e-06	-0.010337221130244904
9.79625e-06	-0.010322652437998403
9.79650e-06	-0.010374702877635566
9.79675e-06	-0.01048399610992481
9.79700e-06	-0.010578602265909762
9.79725e-06	-0.010592426977799312
9.79750e-06	-0.01055168331174732
9.79775e-06	-0.010477257640100053
9.79800e-06	-0.0104152416079328
9.79825e-06	-0.010405996849209394
9.79850e-06	-0.010438452415518502
9.79875e-06	-0.01050674420401406
9.79900e-06	-0.0105658266803168
9.79925e-06	-0.01057431256982733
9.79950e-06	-0.010548637629187311
9.79975e-06	-0.010501900524821478
9.80000e-06	-0.010462985354439644
9.80025e-06	-0.010457184349876457
9.80050e-06	-0.010477573524859285
9.80075e-06	-0.010520489126866563
9.80100e-06	-0.0105577246277337
9.80125e-06	-0.010563369905727888
9.80150e-06	-0.01054773540776028
9.80175e-06	-0.01051903861099156
9.80200e-06	-0.01049538509641225
9.80225e-06	-0.010492629381533685
9.80250e-06	-0.010506579840184743
9.80275e-06	-0.010535484115736994
9.80300e-06	-0.010562450389433802
9.80325e-06	-0.010571704234578972
9.80350e-06	-0.010569725519615488
9.80375e-06	-0.010561540745520058
9.80400e-06	-0.010558370179222999
9.80425e-06	-0.01057002326224473
9.80450e-06	-0.01059673385986407
9.80475e-06	-0.010631075914141844
9.80500e-06	-0.010663072570164859
9.80525e-06	-0.010687960643468565
9.80550e-06	-0.01070769033009505
9.80575e-06	-0.010726862536615998
9.80600e-06	-0.010746034743137076
9.80625e-06	-0.010773315014477505
9.80650e-06	-0.010813278815532502
9.80675e-06	-0.010858051216984667
9.80700e-06	-0.010902823618436832
9.80725e-06	-0.010943822998464903
9.80750e-06	-0.010980990000118193
9.80775e-06	-0.01101782132441737
9.80800e-06	-0.011054652648716296
9.80825e-06	-0.011096366316448522
9.80850e-06	-0.011145351307664884
9.80875e-06	-0.01119689535555663
9.80900e-06	-0.011248439403448723
9.80925e-06	-0.01129691611208208
9.80950e-06	-0.011341345809583346
9.80975e-06	-0.011384646721367518
9.81000e-06	-0.01142794763315169
9.81025e-06	-0.011473096713906608
9.81050e-06	-0.011520840764915732
9.81075e-06	-0.011569408771520642
9.81100e-06	-0.011614839550124293
9.81125e-06	-0.011657387487606601
9.81150e-06	-0.011696329117437116
9.81175e-06	-0.01173195686252903
9.81200e-06	-0.011766379026810847
9.81225e-06	-0.011799693366627418
9.81250e-06	-0.011831543925557299
9.81275e-06	-0.011862049396488623
9.81300e-06	-0.0118870729691725
9.81325e-06	-0.011907059151623748
9.81350e-06	-0.01192704533407486
9.81375e-06	-0.011941596696112094
9.81400e-06	-0.01195115392837282
9.81425e-06	-0.011960711160633481
9.81450e-06	-0.011966156119866152
9.81475e-06	-0.011967822255952143
9.81500e-06	-0.011969488392038123
9.81525e-06	-0.011964021616185625
9.81550e-06	-0.011952000311353043
9.81575e-06	-0.011939979006520541
9.81600e-06	-0.011927957701687959
9.81625e-06	-0.011915693326553558
9.81650e-06	-0.011892167497437179
9.81675e-06	-0.01186864166832064
9.81700e-06	-0.011845115839204102
9.81725e-06	-0.011821590010087722
9.81750e-06	-0.011793317246977445
9.81775e-06	-0.011760682462199485
9.81800e-06	-0.011728047677421747
9.81825e-06	-0.011693759748856229
9.81850e-06	-0.0116579527241687
9.81875e-06	-0.011621075528110413
9.81900e-06	-0.011583214937145857
9.81925e-06	-0.011544385367885518
9.81950e-06	-0.011504323713103608
9.81975e-06	-0.011463720461774652
9.82000e-06	-0.011423074515012005
9.82025e-06	-0.011382850903652385
9.82050e-06	-0.011343217462433969
9.82075e-06	-0.011304383739130598
9.82100e-06	-0.011266348395009925
9.82125e-06	-0.011229138635979258
9.82150e-06	-0.011193117586242852
9.82175e-06	-0.011158626503114692
9.82200e-06	-0.011126098688206352
9.82225e-06	-0.011095946690661426
9.82250e-06	-0.011068294677742016
9.82275e-06	-0.011042976034014136
9.82300e-06	-0.011019798579496384
9.82325e-06	-0.010997632170897961
9.82350e-06	-0.010977099896996231
9.82375e-06	-0.010958069251506539
9.82400e-06	-0.01094111197204703
9.82425e-06	-0.010926059936596197
9.82450e-06	-0.010913560134485753
9.82475e-06	-0.010903405614013864
9.82500e-06	-0.010893251093542042
9.82525e-06	-0.010886293659484583
9.82550e-06	-0.010882274071252532
9.82575e-06	-0.01087825448302051
9.82600e-06	-0.010874234894788459
9.82625e-06	-0.01087021530655641
9.82650e-06	-0.010866344882255323
9.82675e-06	-0.010869385227133002
9.82700e-06	-0.010872425572010682
9.82725e-06	-0.010875465916888342
9.82750e-06	-0.010878506261766022
9.82775e-06	-0.010881546606643703
9.82800e-06	-0.010887102600634739
9.82825e-06	-0.010894970258524608
9.82850e-06	-0.01090283791641453
9.82875e-06	-0.010910705574304453
9.82900e-06	-0.010918573232194322
9.82925e-06	-0.010926440890084245
9.82950e-06	-0.010935326383677836
9.82975e-06	-0.010945147180227089
9.83000e-06	-0.01095496797677641
9.83025e-06	-0.01096478877332573
9.83050e-06	-0.010974609569874984
9.83075e-06	-0.010984430366424304
9.83100e-06	-0.010993905763748117
9.83125e-06	-0.011003063769065107
9.83150e-06	-0.01101222177438216
9.83175e-06	-0.011020055414673277
9.83200e-06	-0.01102667207808011
9.83225e-06	-0.011033288741486987
9.83250e-06	-0.011039905404893864
9.83275e-06	-0.011046522068300696
9.83300e-06	-0.011053138731707574
9.83325e-06	-0.011059755395114449
9.83350e-06	-0.011066372058521281
9.83375e-06	-0.011072981827962269
9.83400e-06	-0.011079272199765946
9.83425e-06	-0.01108556257156958
9.83450e-06	-0.011091852943373256
9.83475e-06	-0.011098143315176933
9.83500e-06	-0.011104433686980567
9.83525e-06	-0.011110724058784242
9.83550e-06	-0.01111701443058792
9.83575e-06	-0.011123304802391553
9.83600e-06	-0.011130233251563135
9.83625e-06	-0.011137748038634026
9.83650e-06	-0.011145262825704917
9.83675e-06	-0.011152777612775758
9.83700e-06	-0.01116029239984665
9.83725e-06	-0.01116780718691754
9.83750e-06	-0.011175321973988381
9.83775e-06	-0.011182836761059273
9.83800e-06	-0.011190361622858002
9.83825e-06	-0.011198353247087043
9.83850e-06	-0.011206344871316137
9.83875e-06	-0.011214336495545232
9.83900e-06	-0.011222328119774272
9.83925e-06	-0.011230319744003367
9.83950e-06	-0.011238311368232461
9.83975e-06	-0.011246302992461502
9.84000e-06	-0.011254294616690596
9.84025e-06	-0.011261294722933746
9.84050e-06	-0.011267383709926545
9.84075e-06	-0.011273472696919385
9.84100e-06	-0.011279561683912226
9.84125e-06	-0.011285650670905025
9.84150e-06	-0.011291739657897865
9.84175e-06	-0.011297828644890706
9.84200e-06	-0.011303917631883504
9.84225e-06	-0.011310006618876345
9.84250e-06	-0.01131599447126076
9.84275e-06	-0.011317296754321932
9.84300e-06	-0.011318599037383113
9.84325e-06	-0.011319901320444293
9.84350e-06	-0.011321203603505465
9.84375e-06	-0.011322505886566643
9.84400e-06	-0.011323808169627823
9.84425e-06	-0.011325110452688995
9.84450e-06	-0.011326412735750175
9.84475e-06	-0.011327715018811354
9.84500e-06	-0.011326304915345689
9.84525e-06	-0.011322402363317219
9.84550e-06	-0.011318499811288721
9.84575e-06	-0.011314597259260224
9.84600e-06	-0.011310694707231754
9.84625e-06	-0.011306792155203256
9.84650e-06	-0.011302889603174758
9.84675e-06	-0.011298987051146289
9.84700e-06	-0.011295084499117791
9.84725e-06	-0.011289385709337582
9.84750e-06	-0.011282036332460483
9.84775e-06	-0.011274686955583334
9.84800e-06	-0.011267337578706184
9.84825e-06	-0.011259988201829085
9.84850e-06	-0.011252638824951937
9.84875e-06	-0.011245289448074788
9.84900e-06	-0.011237940071197688
9.84925e-06	-0.011230590694320539
9.84950e-06	-0.011222973888901484
9.84975e-06	-0.011215111339788341
9.85000e-06	-0.011207248790675146
9.85025e-06	-0.011199386241561951
9.85050e-06	-0.01119152369244881
9.85075e-06	-0.011183661143335613
9.85100e-06	-0.011175798594222418
9.85125e-06	-0.011167936045109277
9.85150e-06	-0.011160073495996082
9.85175e-06	-0.011152210946882886
9.85200e-06	-0.011144348397769744
9.85225e-06	-0.011136582929130499
9.85250e-06	-0.011133315201662171
9.85275e-06	-0.011130047474193867
9.85300e-06	-0.01112677974672554
9.85325e-06	-0.011123512019257214
9.85350e-06	-0.011120244291788888
9.85375e-06	-0.011116976564320582
9.85400e-06	-0.011113708836852256
9.85425e-06	-0.01111044110938393
9.85450e-06	-0.011107173381915624
9.85475e-06	-0.011103905654447297
9.85500e-06	-0.011100637926978971
9.85525e-06	-0.011100571283811705
9.85550e-06	-0.011103446160184225
9.85575e-06	-0.011106321036556743
9.85600e-06	-0.011109195912929241
9.85625e-06	-0.011112070789301761
9.85650e-06	-0.011114945665674279
9.85675e-06	-0.011117820542046778
9.85700e-06	-0.011120695418419297
9.85725e-06	-0.011125432417243314
9.85750e-06	-0.011131880545503948
9.85775e-06	-0.011138328673764625
9.85800e-06	-0.011144776802025302
9.85825e-06	-0.011151224930285936
9.85850e-06	-0.011157673058546614
9.85875e-06	-0.011164121186807291
9.85900e-06	-0.011170569315067925
9.85925e-06	-0.01117757452918695
9.85950e-06	-0.011185091657015115
9.85975e-06	-0.011192608784843228
9.86000e-06	-0.011200125912671393
9.86025e-06	-0.011207643040499557
9.86050e-06	-0.011215139754124326
9.86075e-06	-0.011221690677114171
9.86100e-06	-0.011228241600104017
9.86125e-06	-0.011234792523093817
9.86150e-06	-0.011241343446083662
9.86175e-06	-0.011247894369073507
9.86200e-06	-0.011253609781852844
9.86225e-06	-0.011258557433030489
9.86250e-06	-0.011263266540340319
9.86275e-06	-0.01126775644647254
9.86300e-06	-0.011273578768539147
9.86325e-06	-0.011280625465579546
9.86350e-06	-0.011287672162619946
9.86375e-06	-0.01129635186189947
9.86400e-06	-0.011306532148962592
9.86425e-06	-0.011316712436025713
9.86450e-06	-0.011329811362098617
9.86475e-06	-0.011345592264924487
9.86500e-06	-0.011361373167750355
9.86525e-06	-0.011377154070576117
9.86550e-06	-0.011392934973401986
9.86575e-06	-0.011408715876227856
9.86600e-06	-0.01142466531883495
9.86625e-06	-0.011448423214432995
9.86650e-06	-0.01147218111003104
9.86675e-06	-0.011495939005628923
9.86700e-06	-0.011519696901226967
9.86725e-06	-0.011543454796825012
9.86750e-06	-0.011567212692422897
9.86775e-06	-0.011593690638254025
9.86800e-06	-0.011622668074932776
9.86825e-06	-0.011651645511611328
9.86850e-06	-0.01168062294829008
9.86875e-06	-0.01170960038496883
9.86900e-06	-0.011738577821647384
9.86925e-06	-0.011767555258326134
9.86950e-06	-0.011796385845444653
9.86975e-06	-0.011825081490521347
9.87000e-06	-0.011853777135598235
9.87025e-06	-0.011882472780675123
9.87050e-06	-0.011911168425751816
9.87075e-06	-0.011939864070828704
9.87100e-06	-0.011968559715905592
9.87125e-06	-0.011992793240475927
9.87150e-06	-0.012012926462326467
9.87175e-06	-0.012033059684177142
9.87200e-06	-0.012053192906027818
9.87225e-06	-0.012073326127878358
9.87250e-06	-0.012093459349729033
9.87275e-06	-0.012113592571579708
9.87300e-06	-0.012133725793430248
9.87325e-06	-0.012153599197498281
9.87350e-06	-0.012161435236073733
9.87375e-06	-0.012169271274649132
9.87400e-06	-0.012177107313224586
9.87425e-06	-0.012184943351800039
9.87450e-06	-0.01219277939037544
9.87475e-06	-0.012200615428950892
9.87500e-06	-0.012208451467526344
9.87525e-06	-0.012216287506101745
9.87550e-06	-0.012218636947215764
9.87575e-06	-0.012215944679917063
9.87600e-06	-0.012213252412618381
9.87625e-06	-0.012210560145319682
9.87650e-06	-0.012207867878020981
9.87675e-06	-0.0122051756107223
9.87700e-06	-0.012202483343423599
9.87725e-06	-0.0121997910761249
9.87750e-06	-0.012197098808826216
9.87775e-06	-0.012194406541527517
9.87800e-06	-0.012188364759175034
9.87825e-06	-0.012179245062259933
9.87850e-06	-0.012170125365344772
9.87875e-06	-0.01216100566842961
9.87900e-06	-0.012151885971514509
9.87925e-06	-0.012142766274599348
9.87950e-06	-0.012133646577684185
9.87975e-06	-0.012124526880769024
9.88000e-06	-0.012115407183853923
9.88025e-06	-0.01210628748693876
9.88050e-06	-0.012097101557497693
9.88075e-06	-0.012087854766095257
9.88100e-06	-0.012078607974692757
9.88125e-06	-0.012069361183290259
9.88150e-06	-0.012060114391887823
9.88175e-06	-0.012050867600485324
9.88200e-06	-0.012041620809082824
9.88225e-06	-0.012032374017680389
9.88250e-06	-0.01202312722627789
9.88275e-06	-0.012015632075411628
9.88300e-06	-0.012009746530661242
9.88325e-06	-0.012003860985910818
9.88350e-06	-0.011997975441160392
9.88375e-06	-0.011992089896410006
9.88400e-06	-0.01198620435165958
9.88425e-06	-0.011980318806909154
9.88450e-06	-0.01197443326215877
9.88475e-06	-0.011968547717408344
9.88500e-06	-0.01196453605686323
9.88525e-06	-0.01196224633379051
9.88550e-06	-0.011959956610717776
9.88575e-06	-0.01195766688764504
9.88600e-06	-0.01195537716457232
9.88625e-06	-0.011953087441499585
9.88650e-06	-0.011950797718426848
9.88675e-06	-0.01194850799535413
9.88700e-06	-0.011946218272281393
9.88725e-06	-0.011943928549208659
9.88750e-06	-0.011941638826135938
9.88775e-06	-0.011939349103063202
9.88800e-06	-0.011937059379990468
9.88825e-06	-0.011934769656917732
9.88850e-06	-0.011933467389669498
9.88875e-06	-0.01193307250889786
9.88900e-06	-0.011932677628126224
9.88925e-06	-0.011932282747354589
9.88950e-06	-0.011931887866582952
9.88975e-06	-0.011931492985811315
9.89000e-06	-0.01193109810503968
9.89025e-06	-0.011930703224268042
9.89050e-06	-0.011930308343496404
9.89075e-06	-0.01192991346272477
9.89100e-06	-0.011929518581953133
9.89125e-06	-0.011929123701181495
9.89150e-06	-0.011928728820409861
9.89175e-06	-0.011928333939638222
9.89200e-06	-0.011927694771826739
9.89225e-06	-0.011926831125359217
9.89250e-06	-0.011925967478891691
9.89275e-06	-0.011923591355910583
9.89300e-06	-0.011919825397859723
9.89325e-06	-0.011916059439808835
9.89350e-06	-0.011909746425363736
9.89375e-06	-0.011901092886441325
9.89400e-06	-0.011892439347518857
9.89425e-06	-0.011879976467680131
9.89450e-06	-0.011864013133090042
9.89475e-06	-0.011848049798499845
9.89500e-06	-0.011832086463909649
9.89525e-06	-0.01181612312931956
9.89550e-06	-0.011800159794729363
9.89575e-06	-0.011778888313076968
9.89600e-06	-0.01175273910348838
9.89625e-06	-0.011726589893899613
9.89650e-06	-0.011700440684310847
9.89675e-06	-0.011674291474722081
9.89700e-06	-0.011648142265133492
9.89725e-06	-0.011618163103920803
