Time(s)	Current(A)
9.25000e-06	0.0077738290002567646
9.25025e-06	0.007799355018083778
9.25050e-06	0.007824881035910966
9.25075e-06	0.007850407053738153
9.25100e-06	0.007875933071565167
9.25125e-06	0.007901459089392352
9.25150e-06	0.00792698510721954
9.25175e-06	0.007952511125046554
9.25200e-06	0.007981612663062694
9.25225e-06	0.008030650078419558
9.25250e-06	0.008079687493776088
9.25275e-06	0.008128724909132952
9.25300e-06	0.008177762324489815
9.25325e-06	0.008226799739846346
9.25350e-06	0.008275837155203209
9.25375e-06	0.008324874570560073
9.25400e-06	0.008373911985916603
9.25425e-06	0.008422949401273467
9.25450e-06	0.008471986816630328
9.25475e-06	0.008524475276440428
9.25500e-06	0.008578805087547974
9.25525e-06	0.008633134898655519
9.25550e-06	0.008687464709762694
9.25575e-06	0.00874179452087024
9.25600e-06	0.008796124331977784
9.25625e-06	0.008850454143085329
9.25650e-06	0.008904783954192506
9.25675e-06	0.00895911376530005
9.25700e-06	0.009013443576407595
9.25725e-06	0.009063836894234081
9.25750e-06	0.009092281672246308
9.25775e-06	0.009120726450258534
9.25800e-06	0.009149171228270568
9.25825e-06	0.009177616006282795
9.25850e-06	0.00920606078429502
9.25875e-06	0.009234505562307054
9.25900e-06	0.00926295034031928
9.25925e-06	0.009291395118331507
9.25950e-06	0.009319839896343541
9.25975e-06	0.009348284674355766
9.26000e-06	0.009376729452367992
9.26025e-06	0.009381940726481682
9.26050e-06	0.009374755451341662
9.26075e-06	0.009367570176201642
9.26100e-06	0.00936038490106167
9.26125e-06	0.00935319962592165
9.26150e-06	0.009346014350781631
9.26175e-06	0.00933882907564166
9.26200e-06	0.009331643800501638
9.26225e-06	0.009324458525361618
9.26250e-06	0.009317273250221646
9.26275e-06	0.009310087975081626
9.26300e-06	0.009299599084759542
9.26325e-06	0.009270690366382386
9.26350e-06	0.009241781648005034
9.26375e-06	0.009212872929627683
9.26400e-06	0.009183964211250527
9.26425e-06	0.009155055492873175
9.26450e-06	0.009126146774495823
9.26475e-06	0.009097238056118472
9.26500e-06	0.009068329337741316
9.26525e-06	0.009039420619363964
9.26550e-06	0.009010348471997956
9.26575e-06	0.008980365100501958
9.26600e-06	0.008950381729005757
9.26625e-06	0.008920398357509556
9.26650e-06	0.00889041498601356
9.26675e-06	0.008860431614517359
9.26700e-06	0.008830448243021158
9.26725e-06	0.00880046487152516
9.26750e-06	0.008770481500028961
9.26775e-06	0.00874049812853276
9.26800e-06	0.008710958238009617
9.26825e-06	0.008683891045672526
9.26850e-06	0.008656823853335433
9.26875e-06	0.008629756660998524
9.26900e-06	0.008602689468661431
9.26925e-06	0.00857562227632434
9.26950e-06	0.008548555083987431
9.26975e-06	0.008521487891650338
9.27000e-06	0.008494420699313247
9.27025e-06	0.008458044632023988
9.27050e-06	0.008416701688993744
9.27075e-06	0.008375358745963499
9.27100e-06	0.008334015802933534
9.27125e-06	0.008292672859903288
9.27150e-06	0.008251329916873043
9.27175e-06	0.008209986973843078
9.27200e-06	0.008168644030812832
9.27225e-06	0.008125021729498907
9.27250e-06	0.008068690506178894
9.27275e-06	0.0080123592828585
9.27300e-06	0.007956028059538107
9.27325e-06	0.007899696836217714
9.27350e-06	0.007843365612897703
9.27375e-06	0.00778703438957731
9.27400e-06	0.0077307031662569164
9.27425e-06	0.007674371942936905
9.27450e-06	0.007618040719616512
9.27475e-06	0.007561709496296119
9.27500e-06	0.007506016248873338
9.27525e-06	0.007450663402091925
9.27550e-06	0.007395310555310512
9.27575e-06	0.007339957708529475
9.27600e-06	0.007284604861748062
9.27625e-06	0.007229252014966649
9.27650e-06	0.007173899168185611
9.27675e-06	0.007118546321404198
9.27700e-06	0.007063193474622786
9.27725e-06	0.007007840627841749
9.27750e-06	0.006955680325306569
9.27775e-06	0.006921320557304718
9.27800e-06	0.0068869607893031
9.27825e-06	0.006852601021301249
9.27850e-06	0.006818241253299397
9.27875e-06	0.006783881485297779
9.27900e-06	0.006749521717295928
9.27925e-06	0.006715161949294076
9.27950e-06	0.006680802181292458
9.27975e-06	0.006646442413290607
9.28000e-06	0.0066120826452887565
9.28025e-06	0.006577722877287138
9.28050e-06	0.006549468772268888
9.28075e-06	0.00652661982525788
9.28100e-06	0.006503770878247028
9.28125e-06	0.00648092193123602
9.28150e-06	0.006458072984225013
9.28175e-06	0.006435224037214005
9.28200e-06	0.006412375090203153
9.28225e-06	0.006389526143192145
9.28250e-06	0.006366677196181138
9.28275e-06	0.006343828249170285
9.28300e-06	0.006320979302159278
9.28325e-06	0.00629813035514827
9.28350e-06	0.006281907396387032
9.28375e-06	0.0010396366318641548
9.28400e-06	-0.015795393815946045
9.28425e-06	-0.011262757180600406
9.28450e-06	-0.007586750350070948
9.28475e-06	-0.0013460128439185819
9.28500e-06	0.011691836037095364
9.28525e-06	0.010539973635646495
9.28550e-06	0.009581324525586151
9.28575e-06	0.004153155820912141
9.28600e-06	-0.002595286295738058
9.28625e-06	-0.0024847026918807277
9.28650e-06	0.0007923729157469911
9.28675e-06	0.005272486002455715
9.28700e-06	0.009983379729060679
9.28725e-06	0.010549099770639538
9.28750e-06	0.008783270739794284
9.28775e-06	0.005300052356887586
9.28800e-06	0.001396356824796799
9.28825e-06	0.0013831757662946924
9.28850e-06	0.003371430048289125
9.28875e-06	0.006128907870827606
9.28900e-06	0.009044190748015822
9.28925e-06	0.009374035184343743
9.28950e-06	0.008252848784104292
9.28975e-06	0.006063965375631519
9.29000e-06	0.003618614259552409
9.29025e-06	0.0036160918260351206
9.29050e-06	0.00487207781508573
9.29075e-06	0.006613936034937468
9.29100e-06	0.008458052440723054
9.29125e-06	0.008685619635498085
9.29150e-06	0.008006897780168647
9.29175e-06	0.006661684025494427
9.29200e-06	0.005157814325926846
9.29225e-06	0.005185739870891441
9.29250e-06	0.006003202678797331
9.29275e-06	0.007125897928958177
9.29300e-06	0.008313253568077937
9.29325e-06	0.008488406883222542
9.29350e-06	0.008096098167669473
9.29375e-06	0.0072863506887787645
9.29400e-06	0.006377073874819442
9.29425e-06	0.006426905599441868
9.29450e-06	0.0069706151072838705
9.29475e-06	0.007704592196669557
9.29500e-06	0.008477922061475851
9.29525e-06	0.008615879901956494
9.29550e-06	0.008396889847907998
9.29575e-06	0.007914750395166188
9.29600e-06	0.0073684103956588014
9.29625e-06	0.007420771411310779
9.29650e-06	0.007780170432516023
9.29675e-06	0.008256204776990883
9.29700e-06	0.008754134177662475
9.29725e-06	0.008851127233630733
9.29750e-06	0.008721417669425382
9.29775e-06	0.008423576053329922
9.29800e-06	0.008082103535304398
9.29825e-06	0.008112719578814495
9.29850e-06	0.008334359950609667
9.29875e-06	0.008629491952342964
9.29900e-06	0.008939357237687044
9.29925e-06	0.008999055104491461
9.29950e-06	0.00891768514326524
9.29975e-06	0.008731893776137346
9.30000e-06	0.008519617310428116
9.30025e-06	0.008541196411705601
9.30050e-06	0.008683139904329635
9.30075e-06	0.008871763794005453
9.30100e-06	0.009070202171173252
9.30125e-06	0.009112472458110006
9.30150e-06	0.009066872326559425
9.30175e-06	0.008956304835805963
9.30200e-06	0.008829539280719698
9.30225e-06	0.008849590114643233
9.30250e-06	0.008945301742496982
9.30275e-06	0.009070457416815742
9.30300e-06	0.009201907890128553
9.30325e-06	0.009235629886043855
9.30350e-06	0.009214354882771721
9.30375e-06	0.009152379917440561
9.30400e-06	0.009080200998905661
9.30425e-06	0.009099869393776668
9.30450e-06	0.009166752553439773
9.30475e-06	0.009251840962157795
9.30500e-06	0.009340577103767884
9.30525e-06	0.009367749011673282
9.30550e-06	0.009360072604894623
9.30575e-06	0.009326450101079803
9.30600e-06	0.009285929252770601
9.30625e-06	0.00930237894114452
9.30650e-06	0.009347781169268932
9.30675e-06	0.009403907055033007
9.30700e-06	0.009461580892836344
9.30725e-06	0.009479900992467045
9.30750e-06	0.009475549602008608
9.30775e-06	0.00945646929505668
9.30800e-06	0.009443319020303065
9.30825e-06	0.009434978895079372
9.30850e-06	0.00945920387594072
9.30875e-06	0.009486292782366209
9.30900e-06	0.009503751355349891
9.30925e-06	0.009517208403083656
9.30950e-06	0.00950241457558921
9.30975e-06	0.009476583866591023
9.31000e-06	0.009452418374086106
9.31025e-06	0.009430987310028083
9.31050e-06	0.009427940458033236
9.31075e-06	0.00942536966457113
9.31100e-06	0.00941531976266842
9.31125e-06	0.009402576113597707
9.31150e-06	0.009370379527521419
9.31175e-06	0.009327697945249222
9.31200e-06	0.009286308893203938
9.31225e-06	0.009254261413234004
9.31250e-06	0.00922741798778529
9.31275e-06	0.009201390781453975
9.31300e-06	0.00917383567899635
9.31325e-06	0.00913522295317318
9.31350e-06	0.009089840249856438
9.31375e-06	0.009040049882372345
9.31400e-06	0.008990259514888252
9.31425e-06	0.008941594683115995
9.31450e-06	0.008900332896798093
9.31475e-06	0.008858641620863715
9.31500e-06	0.008816950344929618
9.31525e-06	0.008774272675049075
9.31550e-06	0.008724933636091819
9.31575e-06	0.008674819789233477
9.31600e-06	0.008624705942375474
9.31625e-06	0.008575647165805016
9.31650e-06	0.008533898230796148
9.31675e-06	0.008494203400021156
9.31700e-06	0.008454508569245895
9.31725e-06	0.008414813738470634
9.31750e-06	0.00837585605002827
9.31775e-06	0.008341789201571411
9.31800e-06	0.008307722353114552
9.31825e-06	0.008273655504657923
9.31850e-06	0.008241551238194946
9.31875e-06	0.008222468438641028
9.31900e-06	0.008203385639087239
9.31925e-06	0.00818430283953332
9.31950e-06	0.008165220039979403
9.31975e-06	0.008146137240425613
9.32000e-06	0.008137277632420026
9.32025e-06	0.008134396967031048
9.32050e-06	0.00813151630164209
9.32075e-06	0.008128635636253111
9.32100e-06	0.008125754970864135
9.32125e-06	0.00812560237803613
9.32150e-06	0.008143550178817545
9.32175e-06	0.008161497979598961
9.32200e-06	0.008179445780380254
9.32225e-06	0.00819739358116167
9.32250e-06	0.008215341381943086
9.32275e-06	0.00823328918272438
9.32300e-06	0.008251236983505796
9.32325e-06	0.008269184784287212
9.32350e-06	0.008287132585068507
9.32375e-06	0.008305080385849923
9.32400e-06	0.008323028186631339
9.32425e-06	0.008348875150938956
9.32450e-06	0.008379341870752718
9.32475e-06	0.008409808590566687
9.32500e-06	0.008440275310380656
9.32525e-06	0.00847074203019442
9.32550e-06	0.008501208750008388
9.32575e-06	0.008531675469822357
9.32600e-06	0.00856214218963612
9.32625e-06	0.008592608909450088
9.32650e-06	0.008623075629264057
9.32675e-06	0.008653542349077819
9.32700e-06	0.008682012846967443
9.32725e-06	0.008697238681538858
9.32750e-06	0.00871246451611017
9.32775e-06	0.008727690350681582
9.32800e-06	0.008742916185252997
9.32825e-06	0.008758142019824309
9.32850e-06	0.008773367854395723
9.32875e-06	0.008788593688967136
9.32900e-06	0.008803819523538448
9.32925e-06	0.008819045358109862
9.32950e-06	0.008834271192681275
9.32975e-06	0.008849497027252587
9.33000e-06	0.008864722861824001
9.33025e-06	0.008876640915737994
9.33050e-06	0.0088666122909742
9.33075e-06	0.00885658366621034
9.33100e-06	0.008846555041446479
9.33125e-06	0.008836526416682686
9.33150e-06	0.008826497791918825
9.33175e-06	0.008816469167154964
9.33200e-06	0.008806440542391172
9.33225e-06	0.008796411917627311
9.33250e-06	0.00878638329286345
9.33275e-06	0.00877635466809959
9.33300e-06	0.008766326043335796
9.33325e-06	0.008756297418571935
9.33350e-06	0.008744538131059718
9.33375e-06	0.00872129612955346
9.33400e-06	0.008698054128047045
9.33425e-06	0.00867481212654063
9.33450e-06	0.00865157012503437
9.33475e-06	0.008628328123527956
9.33500e-06	0.008605086122021542
9.33525e-06	0.008581844120515283
9.33550e-06	0.008558602119008867
9.33575e-06	0.008535360117502453
9.33600e-06	0.008512118115996194
9.33625e-06	0.008489360397473522
9.33650e-06	0.008469815831254019
9.33675e-06	0.008450271265034648
9.33700e-06	0.008430726698815144
9.33725e-06	0.00841118213259564
9.33750e-06	0.008391637566376271
9.33775e-06	0.008372093000156768
9.33800e-06	0.008352548433937264
9.33825e-06	0.008333003867717893
9.33850e-06	0.008313459301498391
9.33875e-06	0.008293914735278888
9.33900e-06	0.00827545179691652
9.33925e-06	0.00826416531355535
9.33950e-06	0.008252878830194179
9.33975e-06	0.008241592346833086
9.34000e-06	0.008230305863471914
9.34025e-06	0.008219019380110743
9.34050e-06	0.008207732896749649
9.34075e-06	0.008196446413388478
9.34100e-06	0.008185159930027308
9.34125e-06	0.008173873446666136
9.34150e-06	0.008162586963305043
9.34175e-06	0.008151300479943871
9.34200e-06	0.0081400139965827
9.34225e-06	0.008128727513221606
9.34250e-06	0.008117441029860435
9.34275e-06	0.008106154546499265
9.34300e-06	0.00809486806313817
9.34325e-06	0.008083581579776998
9.34350e-06	0.008072295096415829
9.34375e-06	0.008061008613054733
9.34400e-06	0.008052576995294483
9.34425e-06	0.00804581502028119
9.34450e-06	0.008039053045267943
9.34475e-06	0.00803229107025465
9.34500e-06	0.008025529095241356
9.34525e-06	0.00801876712022811
9.34550e-06	0.008012005145214817
9.34575e-06	0.008005243170201525
9.34600e-06	0.007998481195188277
9.34625e-06	0.007991719220174985
9.34650e-06	0.007984957245161692
9.34675e-06	0.007978195270148446
9.34700e-06	0.007971433295135152
9.34725e-06	0.00796467132012186
9.34750e-06	0.007957909345108613
9.34775e-06	0.00795114737009532
9.34800e-06	0.007944385395082028
9.34825e-06	0.00793762342006878
9.34850e-06	0.007930861445055488
9.34875e-06	0.007925131763941549
9.34900e-06	0.00792625121367623
9.34925e-06	0.007927370663410918
9.34950e-06	0.007928490113145607
9.34975e-06	0.007929609562880295
9.35000e-06	0.007930729012614976
9.35025e-06	0.007931848462349666
9.35050e-06	0.007932967912084353
9.35075e-06	0.007934087361819034
9.35100e-06	0.007935206811553722
9.35125e-06	0.007936326261288412
9.35150e-06	0.007937445711023092
9.35175e-06	0.00793856516075778
9.35200e-06	0.00793968461049247
9.35225e-06	0.00794080406022715
9.35250e-06	0.007941923509961838
9.35275e-06	0.007943042959696528
9.35300e-06	0.007944162409431209
9.35325e-06	0.007945281859165897
9.35350e-06	0.007946401308900586
9.35375e-06	0.007950227417372172
9.35400e-06	0.007955636491125408
9.35425e-06	0.007961045564878646
9.35450e-06	0.007966454638631845
9.35475e-06	0.00797186371238508
9.35500e-06	0.007977272786138318
9.35525e-06	0.007982681859891518
9.35550e-06	0.007988090933644755
9.35575e-06	0.00799350000739799
9.35600e-06	0.00799890908115119
9.35625e-06	0.008004318154904428
9.35650e-06	0.008009727228657663
9.35675e-06	0.008015136302410863
9.35700e-06	0.0080205453761641
9.35725e-06	0.008025954449917336
9.35750e-06	0.008031363523670537
9.35775e-06	0.008036772597423773
9.35800e-06	0.00804218167117701
9.35825e-06	0.008047590744930246
9.35850e-06	0.008052515083880447
9.35875e-06	0.008054223272762688
9.35900e-06	0.008055931461644931
9.35925e-06	0.00805763965052716
9.35950e-06	0.008059347839409401
9.35975e-06	0.008061056028291644
9.36000e-06	0.008062764217173873
9.36025e-06	0.008064472406056115
9.36050e-06	0.008066180594938356
9.36075e-06	0.008067888783820585
9.36100e-06	0.008069596972702828
9.36125e-06	0.008071305161585069
9.36150e-06	0.0080730133504673
9.36175e-06	0.00807472153934954
9.36200e-06	0.008076429728231782
9.36225e-06	0.008078137917114012
9.36250e-06	0.008079846105996253
9.36275e-06	0.008081554294878494
9.36300e-06	0.008083262483760725
9.36325e-06	0.008084970672642966
9.36350e-06	0.00808564153402196
9.36375e-06	0.00808570572363941
9.36400e-06	0.00808576991325686
9.36425e-06	0.00808583410287431
9.36450e-06	0.008085898292491761
9.36475e-06	0.00808596248210921
9.36500e-06	0.008086026671726662
9.36525e-06	0.008086090861344111
9.36550e-06	0.008086155050961562
9.36575e-06	0.008086219240579012
9.36600e-06	0.008086283430196463
9.36625e-06	0.008086347619813913
9.36650e-06	0.008086411809431364
9.36675e-06	0.008086475999048813
9.36700e-06	0.008086540188666265
9.36725e-06	0.008086604378283714
9.36750e-06	0.008086668567901165
9.36775e-06	0.008086732757518615
9.36800e-06	0.008086796947136066
9.36825e-06	0.008085400091069572
9.36850e-06	0.008074309393856994
9.36875e-06	0.00806321869664434
9.36900e-06	0.008052127999431688
9.36925e-06	0.00804103730221911
9.36950e-06	0.008029946605006458
9.36975e-06	0.008018855907793805
9.37000e-06	0.008007765210581228
9.37025e-06	0.007996674513368574
9.37050e-06	0.007985583816155922
9.37075e-06	0.007974493118943344
9.37100e-06	0.007960769105981617
9.37125e-06	0.007929573398023764
9.37150e-06	0.007898377690066122
9.37175e-06	0.007867181982108269
9.37200e-06	0.007835986274150416
9.37225e-06	0.007804790566192774
9.37250e-06	0.0077735948582349215
9.37275e-06	0.007742399150277068
9.37300e-06	0.0077112034423194266
9.37325e-06	0.007680007734361574
9.37350e-06	0.007648812026403721
9.37375e-06	0.0076163235181983605
9.37400e-06	0.007575257454630365
9.37425e-06	0.007534191391062368
9.37450e-06	0.007493125327494651
9.37475e-06	0.007452059263926654
9.37500e-06	0.007410993200358659
9.37525e-06	0.007369927136790663
9.37550e-06	0.007328861073222945
9.37575e-06	0.007287795009654949
9.37600e-06	0.007246728946086953
9.37625e-06	0.007206915628036312
9.37650e-06	0.0071754141076112304
9.37675e-06	0.007143912587186149
9.37700e-06	0.007112411066761281
9.37725e-06	0.0070809095463362
9.37750e-06	0.007049408025911119
9.37775e-06	0.007017906505486251
9.37800e-06	0.00698640498506117
9.37825e-06	0.006954903464636088
9.37850e-06	0.0069234019442112205
9.37875e-06	0.006896344984613789
9.37900e-06	0.006898777086951273
9.37925e-06	0.0069012091892887385
9.37950e-06	0.006903641291626222
9.37975e-06	0.006906073393963705
9.38000e-06	0.006908505496301171
9.38025e-06	0.006910937598638654
9.38050e-06	0.0069133697009761364
9.38075e-06	0.006915801803313603
9.38100e-06	0.0069182339056510864
9.38125e-06	0.006925537984505258
9.38150e-06	0.006965166970774279
9.38175e-06	0.007004795957043568
9.38200e-06	0.007044424943312858
9.38225e-06	0.007084053929581878
9.38250e-06	0.007123682915851168
9.38275e-06	0.007163311902120457
9.38300e-06	0.007202940888389478
9.38325e-06	0.007242569874658767
9.38350e-06	0.007282198860928056
9.38375e-06	0.007324279550573194
9.38400e-06	0.007382626961612601
9.38425e-06	0.007440974372652404
9.38450e-06	0.007499321783692206
9.38475e-06	0.007557669194731614
9.38500e-06	0.007616016605771417
9.38525e-06	0.0076743640168112194
9.38550e-06	0.007732711427850627
9.38575e-06	0.007791058838890429
9.38600e-06	0.007848310782994352
9.38625e-06	0.007898294451652483
9.38650e-06	0.00794827812031095
9.38675e-06	0.007998261788969419
9.38700e-06	0.00804824545762755
9.38725e-06	0.008098229126286017
9.38750e-06	0.008148212794944485
9.38775e-06	0.008198196463602616
9.38800e-06	0.008248180132261085
9.38825e-06	0.008293866222854948
9.38850e-06	0.008311038462318752
9.38875e-06	0.008328210701782674
9.38900e-06	0.008345382941246595
9.38925e-06	0.008362555180710399
9.38950e-06	0.00837972742017432
9.38975e-06	0.008396899659638241
9.39000e-06	0.008414071899102045
9.39025e-06	0.008431244138565967
9.39050e-06	0.008448416378029887
9.39075e-06	0.008465588617493691
9.39100e-06	0.008482760856957613
9.39125e-06	0.008499933096421533
9.39150e-06	0.008517105335885337
9.39175e-06	0.00853427757534926
9.39200e-06	0.008533417083292505
9.39225e-06	0.008522010308627747
9.39250e-06	0.008510603533963065
9.39275e-06	0.008499196759298307
9.39300e-06	0.008487789984633549
9.39325e-06	0.00847638320996887
9.39350e-06	0.008464976435304111
9.39375e-06	0.008453569660639353
9.39400e-06	0.008442162885974672
9.39425e-06	0.008430756111309914
9.39450e-06	0.008419349336645156
9.39475e-06	0.008407942561980476
9.39500e-06	0.008396535787315718
9.39525e-06	0.00838512901265096
9.39550e-06	0.008372867129833463
9.39575e-06	0.008354931719691518
9.39600e-06	0.008336996309549573
9.39625e-06	0.00831906089940775
9.39650e-06	0.008301125489265804
9.39675e-06	0.00828319007912386
9.39700e-06	0.008265643184341849
9.39725e-06	0.008250674036600054
9.39750e-06	0.00823570488885826
9.39775e-06	0.008220735741116566
9.39800e-06	0.008205766593374771
9.39825e-06	0.008190797445632976
9.39850e-06	0.00817409909061386
9.39875e-06	0.008145927678405359
9.39900e-06	0.008117756266196858
9.39925e-06	0.008089584853988549
9.39950e-06	0.008061413441780046
9.39975e-06	0.008033242029571546
9.40000e-06	0.008005070617363236
9.40025e-06	0.007976899205154734
9.40050e-06	0.007948727792946234
9.40075e-06	0.007904011087370183
9.40100e-06	0.007849618014155348
9.40125e-06	0.007795224940940143
9.40150e-06	0.00774083186772494
