Time(s)	Current(A)
1.05500e-05	-0.006496796226016343
1.05503e-05	-0.0064620531791626514
1.05505e-05	-0.006427310132309196
1.05508e-05	-0.006392567085455505
1.05510e-05	-0.006357824038601813
1.05512e-05	-0.006323080991748357
1.05515e-05	-0.006288337944894666
1.05518e-05	-0.006256305322950514
1.05520e-05	-0.0062314330730270364
1.05523e-05	-0.00620656082310339
1.05525e-05	-0.0061816885731797435
1.05527e-05	-0.006156816323256265
1.05530e-05	-0.006131944073332619
1.05533e-05	-0.0061070718234089725
1.05535e-05	-0.006082199573485494
1.05538e-05	-0.006058344530067843
1.05540e-05	-0.006037176732100052
1.05543e-05	-0.00601600893413226
1.05545e-05	-0.005994841136164612
1.05548e-05	-0.00597367333819682
1.05550e-05	-0.0059525055402290285
1.05553e-05	-0.005931903443039699
1.05555e-05	-0.005912795808217171
1.05558e-05	-0.005893688173394644
1.05560e-05	-0.005874580538572246
1.05563e-05	-0.005855472903749719
1.05565e-05	-0.005836365268927191
1.05568e-05	-0.005817700178552409
1.05570e-05	-0.0058002041974452535
1.05573e-05	-0.005782708216338099
1.05575e-05	-0.005765406122806151
1.05578e-05	-0.0057486162394309835
1.05580e-05	-0.005731826356055816
1.05583e-05	-0.005715364065536797
1.05585e-05	-0.005699767206379712
1.05588e-05	-0.005684480230628793
1.05590e-05	-0.005670011901601596
1.05593e-05	-0.005655787029560201
1.05595e-05	-0.00564220531962394
1.05597e-05	-0.005628846927768581
1.05600e-05	-0.0056162608322778956
1.05603e-05	-0.005604363320067202
1.05605e-05	-0.005593246227558952
1.05608e-05	-0.005583025710533582
1.05610e-05	-0.005573876468316644
1.05612e-05	-0.005565977608732641
1.05615e-05	-0.0055595986953434744
1.05618e-05	-0.005554682941963994
1.05620e-05	-0.0055505031217159785
1.05623e-05	-0.005548267481875607
1.05625e-05	-0.005546773081608342
1.05628e-05	-0.005547236880250501
1.05630e-05	-0.005548685801671843
1.05633e-05	-0.005552737210091868
1.05635e-05	-0.005556788618511892
1.05638e-05	-0.0055623633340998084
1.05640e-05	-0.005571962306544992
1.05643e-05	-0.005581561278990177
1.05645e-05	-0.005591160251435297
1.05648e-05	-0.005600759223880481
1.05650e-05	-0.005610358196325666
1.05653e-05	-0.005624417609838982
1.05655e-05	-0.005639775034428702
1.05658e-05	-0.0056551324590184224
1.05660e-05	-0.005670489883608039
1.05663e-05	-0.00568584730819776
1.05665e-05	-0.005701997014168445
1.05668e-05	-0.005720239760759889
1.05670e-05	-0.005738482507351457
1.05673e-05	-0.0057570000381145705
1.05675e-05	-0.005776243490812432
1.05678e-05	-0.005795486943510424
1.05680e-05	-0.005814722212780321
1.05682e-05	-0.005833935863155795
1.05685e-05	-0.0058531495135314
1.05688e-05	-0.005872069370313959
1.05690e-05	-0.005890213086271637
1.05693e-05	-0.0059083568022294366
1.05695e-05	-0.0059259124195369045
1.05697e-05	-0.005941914404013839
1.05700e-05	-0.005957916388490882
1.05703e-05	-0.005973193116652966
1.05705e-05	-0.005986553870308309
1.05708e-05	-0.005999688684628675
1.05710e-05	-0.006012226614789436
1.05713e-05	-0.0060254291288177764
1.05715e-05	-0.006040387333519218
1.05718e-05	-0.0060561043593774806
1.05720e-05	-0.006073826030988551
1.05723e-05	-0.006091547702599502
1.05725e-05	-0.0061100007254745285
1.05728e-05	-0.00613038582442857
1.05730e-05	-0.0061507709233824745
1.05733e-05	-0.006173118595930506
1.05735e-05	-0.006200650974763006
1.05738e-05	-0.006228183353595318
1.05740e-05	-0.006255715732427817
1.05743e-05	-0.006283248111260317
1.05745e-05	-0.006310780490092629
1.05748e-05	-0.00634038677123872
1.05750e-05	-0.0063754718657104935
1.05753e-05	-0.006410556960182028
1.05755e-05	-0.0064456420546538
1.05758e-05	-0.006480727149125573
1.05760e-05	-0.006515812243597108
1.05763e-05	-0.006552066204381617
1.05765e-05	-0.006591408063901099
1.05767e-05	-0.006630749923420314
1.05770e-05	-0.006670091782939796
1.05773e-05	-0.0067094336424592775
1.05775e-05	-0.006748775501978492
1.05778e-05	-0.006788117361497974
1.05780e-05	-0.006826156107050549
1.05782e-05	-0.006863815639799029
1.05785e-05	-0.006901475172547765
1.05788e-05	-0.006939134705296501
1.05790e-05	-0.006976794238044982
1.05793e-05	-0.007014453770793717
1.05795e-05	-0.007050529439722728
1.05798e-05	-0.007082420873865715
1.05800e-05	-0.007114312308008485
1.05803e-05	-0.007144416472931594
1.05805e-05	-0.007169799048821023
1.05808e-05	-0.007195181624710279
1.05810e-05	-0.00721811019510043
1.05813e-05	-0.0072345557995638484
1.05815e-05	-0.0072510014040271555
1.05818e-05	-0.007264735225006451
1.05820e-05	-0.007271305084888661
1.05823e-05	-0.007277874944770827
1.05825e-05	-0.007281650760667766
1.05828e-05	-0.007278045300540563
1.05830e-05	-0.0072744398404133844
1.05833e-05	-0.007267150158336946
1.05835e-05	-0.007250127537450359
1.05838e-05	-0.007233104916563886
1.05840e-05	-0.007216082295677299
1.05843e-05	-0.007199059674790712
1.05845e-05	-0.007178080110689528
1.05848e-05	-0.007146647135605938
1.05850e-05	-0.007115214160522349
1.05853e-05	-0.007083781185438972
1.05855e-05	-0.007052348210355382
1.05858e-05	-0.007018464699205232
1.05860e-05	-0.006978107387638835
1.05863e-05	-0.0069377500760721645
1.05865e-05	-0.006896333223677709
1.05867e-05	-0.006852117287464278
1.05870e-05	-0.00680731674760625
1.05873e-05	-0.0067609718079869475
1.05875e-05	-0.006714312957181015
1.05878e-05	-0.006666824819101372
1.05880e-05	-0.006619285662462221
1.05883e-05	-0.00657167642575729
1.05885e-05	-0.006524376592382941
1.05888e-05	-0.0064776524194460955
1.05890e-05	-0.006431764257409648
1.05893e-05	-0.00638697994548843
1.05895e-05	-0.006343588651709653
1.05898e-05	-0.006301893695240691
1.05900e-05	-0.006262200212091054
1.05903e-05	-0.006225198872582237
1.05905e-05	-0.00619104936924688
1.05908e-05	-0.006158393149739195
1.05910e-05	-0.006129681871747662
1.05913e-05	-0.00610225264284598
1.05915e-05	-0.006078210317751801
1.05918e-05	-0.006055512568252532
1.05920e-05	-0.006036366904424874
1.05923e-05	-0.006019065026616899
1.05925e-05	-0.00600663404333179
1.05928e-05	-0.00599420306004668
1.05930e-05	-0.005984550753570048
1.05933e-05	-0.005982239126274158
1.05935e-05	-0.005979927498978268
1.05938e-05	-0.005977615871682394
1.05940e-05	-0.005975304244386504
1.05943e-05	-0.005972992617090614
1.05945e-05	-0.0059793719441728135
1.05948e-05	-0.005988280383261787
1.05950e-05	-0.005997188822350761
1.05952e-05	-0.006006097261439674
1.05955e-05	-0.006015005700528647
1.05958e-05	-0.006026221615971934
1.05960e-05	-0.00604353339818976
1.05963e-05	-0.006060845180407702
1.05965e-05	-0.006078156962625645
1.05968e-05	-0.006095468744843588
1.05970e-05	-0.0061127805270614136
1.05973e-05	-0.006130092309279356
1.05975e-05	-0.00615029083048558
1.05978e-05	-0.006171329407446
1.05980e-05	-0.006192367984406564
1.05983e-05	-0.006213406561367128
1.05985e-05	-0.006234445138327549
1.05988e-05	-0.006255483715288113
1.05990e-05	-0.006276205695874467
1.05993e-05	-0.006296091295487523
1.05995e-05	-0.006315976895100712
1.05998e-05	-0.006335077098727446
1.06000e-05	-0.006352102451493447
1.06003e-05	-0.006369127804259563
1.06005e-05	-0.00638500875575386
1.06008e-05	-0.006397866439998485
1.06010e-05	-0.006410724124243197
1.06013e-05	-0.006422249401480181
1.06015e-05	-0.006430254739890663
1.06018e-05	-0.0064382600783012
1.06020e-05	-0.006444012915015884
1.06023e-05	-0.006443815116429076
1.06025e-05	-0.006443617317842267
1.06028e-05	-0.006443419519255458
1.06030e-05	-0.0064432217206686505
1.06033e-05	-0.0064430239220818405
1.06035e-05	-0.0064428261234950315
1.06037e-05	-0.0064344592103841546
1.06040e-05	-0.00642371504332218
1.06043e-05	-0.0064129708762602055
1.06045e-05	-0.006402226709198303
1.06048e-05	-0.006391482542136328
1.06050e-05	-0.006380738375074353
1.06053e-05	-0.00636787343295196
1.06055e-05	-0.006349405849568963
1.06058e-05	-0.006330938266185839
1.06060e-05	-0.006312470682802717
1.06063e-05	-0.006294003099419718
1.06065e-05	-0.006275535516036596
1.06068e-05	-0.006256020240748078
1.06070e-05	-0.006233737183997336
1.06073e-05	-0.0062114541272464425
1.06075e-05	-0.006189171070495549
1.06078e-05	-0.006166888013744806
1.06080e-05	-0.006144604956993913
1.06083e-05	-0.006122222420445326
1.06085e-05	-0.006099577079213061
1.06088e-05	-0.006077114650385006
1.06090e-05	-0.006055135437624081
1.06093e-05	-0.006033492320812174
1.06095e-05	-0.006012737098744937
1.06098e-05	-0.005992631201861019
1.06100e-05	-0.00597424068542107
1.06103e-05	-0.005955850168980996
1.06105e-05	-0.005939124878929362
1.06108e-05	-0.0059267987664467486
1.06110e-05	-0.005914472653964052
1.06113e-05	-0.005902146541481355
1.06115e-05	-0.005889820428998742
1.06118e-05	-0.005877494316516046
1.06120e-05	-0.005865168204033349
1.06122e-05	-0.005852842091550735
1.06125e-05	-0.005842603792141882
1.06128e-05	-0.005837881055366003
1.06130e-05	-0.005833158318590156
1.06133e-05	-0.005828435581814276
1.06135e-05	-0.005823712845038398
1.06138e-05	-0.005818990108262518
1.06140e-05	-0.005814267371486671
1.06143e-05	-0.005809544634710792
1.06145e-05	-0.005806488639598726
1.06148e-05	-0.005807835825094741
1.06150e-05	-0.005809183010590765
1.06153e-05	-0.005810530196086789
1.06155e-05	-0.0058118773815828036
1.06158e-05	-0.005813224567078827
1.06160e-05	-0.005814571752574851
1.06163e-05	-0.0058159189380708656
1.06165e-05	-0.00581726612356689
1.06168e-05	-0.005821085439426308
1.06170e-05	-0.005825624157818148
1.06173e-05	-0.0058301628762100184
1.06175e-05	-0.00583470159460189
1.06178e-05	-0.00583924031299373
1.06180e-05	-0.0058437790313856
1.06183e-05	-0.0058483177497774715
1.06185e-05	-0.0058528564681693115
1.06188e-05	-0.005857268422819815
1.06190e-05	-0.005861345494350773
1.06193e-05	-0.005865422565881702
1.06195e-05	-0.00586949963741266
1.06198e-05	-0.0058735767089436175
1.06200e-05	-0.005877653780474547
1.06203e-05	-0.005881730852005505
1.06205e-05	-0.005885807923536462
1.06207e-05	-0.005889884995067392
1.06210e-05	-0.0058927796180693465
1.06213e-05	-0.005892550460975848
1.06215e-05	-0.0058923213038823505
1.06218e-05	-0.005892092146788852
1.06220e-05	-0.005891862989695354
1.06222e-05	-0.005891633832601857
1.06225e-05	-0.005891404675508358
1.06228e-05	-0.005891175518414859
1.06230e-05	-0.00589094636132136
1.06233e-05	-0.005889316062107748
1.06235e-05	-0.0058839842403680745
1.06238e-05	-0.005878652418628401
1.06240e-05	-0.005873320596888764
1.06243e-05	-0.00586798877514909
1.06245e-05	-0.0058626569534094165
1.06248e-05	-0.005857325131669779
1.06250e-05	-0.005851993309930106
1.06253e-05	-0.005843956166698557
1.06255e-05	-0.005835131761127792
1.06258e-05	-0.005826307355556967
1.06260e-05	-0.005817482949986142
1.06263e-05	-0.005808658544415377
1.06265e-05	-0.005799834138844552
1.06268e-05	-0.005791009733273727
1.06270e-05	-0.005781796648966582
1.06273e-05	-0.005771556757258685
1.06275e-05	-0.005761316865550788
1.06278e-05	-0.00575107697384296
1.06280e-05	-0.005740837082135063
1.06283e-05	-0.005730597190427166
1.06285e-05	-0.005720533689954362
1.06288e-05	-0.005710936177992306
1.06290e-05	-0.005701338666030249
1.06292e-05	-0.005691741154068258
1.06295e-05	-0.005682143642106202
1.06298e-05	-0.005672546130144146
1.06300e-05	-0.005663276274970648
1.06303e-05	-0.005655009220343777
1.06305e-05	-0.005647390144912199
1.06307e-05	-0.005640525366214754
1.06310e-05	-0.005634421518462928
1.06313e-05	-0.0056303278900861915
1.06315e-05	-0.005627185713090211
1.06318e-05	-0.005626557070352347
1.06320e-05	-0.00562704789500307
1.06323e-05	-0.005630496116835592
1.06325e-05	-0.00563394433866809
1.06328e-05	-0.005638821506385626
1.06330e-05	-0.005647473648324252
1.06333e-05	-0.00565612579026282
1.06335e-05	-0.005666895886308614
1.06338e-05	-0.005683261171255446
1.06340e-05	-0.005699626456202167
1.06343e-05	-0.005715991741148999
1.06345e-05	-0.005732357026095831
1.06348e-05	-0.0057487223110425515
1.06350e-05	-0.005771338994579244
1.06353e-05	-0.0057957748669606275
1.06355e-05	-0.005820210739341845
1.06358e-05	-0.005844646611723229
1.06360e-05	-0.005869082484104613
1.06363e-05	-0.005894936988437667
1.06365e-05	-0.005924539219752216
1.06368e-05	-0.005954141451066765
1.06370e-05	-0.005983743682381113
1.06373e-05	-0.006013345913695662
1.06375e-05	-0.0060429481450102115
1.06377e-05	-0.00607255037632456
1.06380e-05	-0.006102042123463031
1.06383e-05	-0.006131501719143268
1.06385e-05	-0.006160961314823305
1.06388e-05	-0.006190420910503542
1.06390e-05	-0.006219880506183779
1.06392e-05	-0.006249340101863816
1.06395e-05	-0.006277812187933504
1.06398e-05	-0.006303675481491863
1.06400e-05	-0.006328711481617585
1.06403e-05	-0.006351561946646908
1.06405e-05	-0.006373020163351996
1.06408e-05	-0.006390800353064839
1.06410e-05	-0.00640858054277756
1.06413e-05	-0.006424259125866275
1.06415e-05	-0.00643438570666095
1.06418e-05	-0.006444512287455557
1.06420e-05	-0.00645242490997806
1.06423e-05	-0.006454488720803413
1.06425e-05	-0.006456552531628751
1.06428e-05	-0.0064555711609989765
1.06430e-05	-0.006446545062002563
1.06433e-05	-0.006437518963006212
1.06435e-05	-0.006428492864009799
1.06438e-05	-0.0064194667650133855
1.06440e-05	-0.006406965905734148
1.06443e-05	-0.00638528546125513
1.06445e-05	-0.006363605016776112
1.06448e-05	-0.0063419245722972405
1.06450e-05	-0.006320244127818223
1.06453e-05	-0.0062959223057550105
1.06455e-05	-0.006264622520147832
1.06458e-05	-0.006233322734540441
1.06460e-05	-0.00620202294893305
1.06462e-05	-0.006170723163325871
1.06465e-05	-0.0061349529828816024
1.06468e-05	-0.006097881894759605
1.06470e-05	-0.00606081080663786
1.06473e-05	-0.0060237397185158624
1.06475e-05	-0.005986142916176395
1.06477e-05	-0.005947091052920943
1.06480e-05	-0.005907858713498685
1.06483e-05	-0.0058686670870213556
1.06485e-05	-0.005829737362600428
1.06488e-05	-0.005791287916294226
1.06490e-05	-0.0057535299483975075
1.06493e-05	-0.005716680449438811
1.06495e-05	-0.005680974652799945
1.06498e-05	-0.005646661057481661
1.06500e-05	-0.005613990189256774
1.06503e-05	-0.00558321244603199
1.06505e-05	-0.00555457686498967
1.06508e-05	-0.005528311751836026
1.06510e-05	-0.005504566967429317
1.06513e-05	-0.00548340022322911
1.06515e-05	-0.005464845586941029
1.06518e-05	-0.005448951286952728
1.06520e-05	-0.005436155650970725
1.06523e-05	-0.005426374668461437
1.06525e-05	-0.005418156912514461
1.06528e-05	-0.0054140688720731725
1.06530e-05	-0.005411885311407288
1.06533e-05	-0.00541473298539959
1.06535e-05	-0.005417580659391913
1.06538e-05	-0.005423209198636116
1.06540e-05	-0.005436184198481056
1.06543e-05	-0.005449159198326084
1.06545e-05	-0.005462134198171112
1.06547e-05	-0.005475109198016052
1.06550e-05	-0.005490956120799023
1.06553e-05	-0.005514390059421529
1.06555e-05	-0.005537823998043877
1.06558e-05	-0.005561257936666383
1.06560e-05	-0.00558469187528889
1.06562e-05	-0.005609749883408719
1.06565e-05	-0.005639098341261719
1.06568e-05	-0.005668446799114719
1.06570e-05	-0.005698510795460366
1.06573e-05	-0.005730465093876923
1.06575e-05	-0.005762419392293697
1.06578e-05	-0.005794605724994118
1.06580e-05	-0.005827405043426704
1.06583e-05	-0.005860204361859512
1.06585e-05	-0.0058927470104804
1.06588e-05	-0.005924611591488936
1.06590e-05	-0.005956476172497688
1.06593e-05	-0.005987547429825079
1.06595e-05	-0.0060165228929867495
1.06598e-05	-0.006045498356148615
1.06600e-05	-0.006072408484027252
1.06603e-05	-0.006093862430855949
1.06605e-05	-0.006115316377684791
1.06608e-05	-0.006136770324513634
1.06610e-05	-0.00615822427134233
1.06613e-05	-0.006179678218171172
1.06615e-05	-0.006201132165000014
1.06618e-05	-0.006222586111828711
1.06620e-05	-0.006242982206729217
1.06623e-05	-0.006260583679520502
1.06625e-05	-0.006278185152311666
1.06628e-05	-0.006295786625102951
1.06630e-05	-0.006313388097894235
1.06632e-05	-0.0063309895706854
1.06635e-05	-0.006348591043476685
1.06638e-05	-0.006366192516267969
1.06640e-05	-0.00638375699791164
1.06643e-05	-0.006401223756730642
1.06645e-05	-0.006418690515549645
1.06647e-05	-0.006436157274368529
1.06650e-05	-0.006453624033187532
1.06653e-05	-0.0064710907920065355
1.06655e-05	-0.006488557550825538
1.06658e-05	-0.006506024309644423
1.06660e-05	-0.006523491068463425
1.06663e-05	-0.006540957827282428
1.06665e-05	-0.0065578394601058495
1.06668e-05	-0.0065745508182828835
1.06670e-05	-0.006591262176459918
1.06673e-05	-0.00660797353463684
1.06675e-05	-0.006624684892813874
1.06678e-05	-0.0066413962509909085
1.06680e-05	-0.00665810760916783
1.06683e-05	-0.006674818967344864
1.06685e-05	-0.006691530325521899
1.06688e-05	-0.006706937920934763
1.06690e-05	-0.006718901249575492
1.06693e-05	-0.006730864578216221
1.06695e-05	-0.006742827906856869
1.06698e-05	-0.006754791235497598
1.06700e-05	-0.006766754564138327
1.06703e-05	-0.006778717892778975
1.06705e-05	-0.006790681221419704
1.06708e-05	-0.006802644550060433
1.06710e-05	-0.006814607878701081
1.06713e-05	-0.006818295685833346
1.06715e-05	-0.006819575274033892
1.06717e-05	-0.006820854862234429
1.06720e-05	-0.0068221344504349754
1.06723e-05	-0.006823414038635521
1.06725e-05	-0.0068246936268360585
1.06728e-05	-0.006825973215036604
1.06730e-05	-0.00682725280323715
1.06732e-05	-0.006828532391437687
1.06735e-05	-0.0068267514762417126
1.06738e-05	-0.006816885355327095
1.06740e-05	-0.0068070192344124765
1.06743e-05	-0.006797153113497926
1.06745e-05	-0.006787286992583307
1.06748e-05	-0.006777420871668689
1.06750e-05	-0.006767554750754138
1.06753e-05	-0.0067576886298395195
1.06755e-05	-0.006742434036767748
1.06758e-05	-0.006725611370838068
1.06760e-05	-0.0067087887049082735
1.06763e-05	-0.006691966038978479
1.06765e-05	-0.006675143373048799
1.06768e-05	-0.0066583207071190045
1.06770e-05	-0.00664149804118921
1.06773e-05	-0.006623999142795257
1.06775e-05	-0.006604713780581407
1.06778e-05	-0.006585428418367557
1.06780e-05	-0.006566143056153838
1.06783e-05	-0.006546857693939988
1.06785e-05	-0.006527572331726138
1.06788e-05	-0.006508783729169713
1.06790e-05	-0.006491307461057054
1.06793e-05	-0.006473831192944394
1.06795e-05	-0.0064563549248318535
1.06798e-05	-0.006438878656719194
1.06800e-05	-0.006421402388606535
1.06802e-05	-0.006404828471305154
1.06805e-05	-0.0063906383748970255
1.06808e-05	-0.006376584136181522
1.06810e-05	-0.006362888804891251
1.06813e-05	-0.006348419308518551
1.06815e-05	-0.006331904630964182
1.06817e-05	-0.006314490159920082
1.06820e-05	-0.006294698623886929
1.06823e-05	-0.006274907087853775
1.06825e-05	-0.006254211368262593
1.06828e-05	-0.006231126986046613
1.06830e-05	-0.006208042603830478
1.06833e-05	-0.006183047135427207
1.06835e-05	-0.006153002979611174
1.06838e-05	-0.006122958823794937
1.06840e-05	-0.0060929146679787
1.06843e-05	-0.006062870512162666
1.06845e-05	-0.0060277032607806156
1.06848e-05	-0.005991045162480317
1.06850e-05	-0.005954387064180267
1.06853e-05	-0.0059177289658799695
1.06855e-05	-0.005879657308246257
1.06858e-05	-0.005837851324415055
1.06860e-05	-0.00579604534058357
1.06863e-05	-0.0057537049618501725
1.06865e-05	-0.005709952824278896
1.06868e-05	-0.0056660331821639775
1.06870e-05	-0.005621540604921136
1.06873e-05	-0.005576585584039783
1.06875e-05	-0.005531266051545483
1.06878e-05	-0.005485827304067786
1.06880e-05	-0.005440539343090539
1.06883e-05	-0.005395672927750213
1.06885e-05	-0.005351495072808228
1.06887e-05	-0.005308236427540555
1.06890e-05	-0.0052660247300778005
1.06893e-05	-0.005224937104626971
1.06895e-05	-0.0051851464031451265
1.06898e-05	-0.0051469167395559534
1.06900e-05	-0.005110528697686809
1.06902e-05	-0.005076263153357258
1.06905e-05	-0.005044405722973374
1.06908e-05	-0.005015305429232976
1.06910e-05	-0.004989468947890053
1.06913e-05	-0.004967408594117726
1.06915e-05	-0.00494936528462129
1.06918e-05	-0.004935370050758495
1.06920e-05	-0.00492542136767948
1.06923e-05	-0.0049195175006050895
1.06925e-05	-0.004917660377069161
1.06928e-05	-0.0049198908836722835
1.06930e-05	-0.004926950863957977
1.06933e-05	-0.004938768183276669
1.06935e-05	-0.004953448104094262
1.06938e-05	-0.004975690415482516
1.06940e-05	-0.00499793272687077
1.06943e-05	-0.005023938747426358
1.06945e-05	-0.00505988769532623
1.06948e-05	-0.005095836643226101
1.06950e-05	-0.005131785591125729
1.06953e-05	-0.0051677345390255995
1.06955e-05	-0.0052140543188072645
1.06958e-05	-0.00526339206351976
1.06960e-05	-0.00531272980823259
1.06963e-05	-0.005362067552945419
1.06965e-05	-0.005413412070281978
