Time(s)	Current(A)
1.45500e-05	0.0050225008236734195
1.45503e-05	0.004994261694808429
1.45505e-05	0.0049725988656307086
1.45508e-05	0.004950936036452989
1.45510e-05	0.004929273207275415
1.45513e-05	0.004907610378097695
1.45515e-05	0.0048859475489199744
1.45518e-05	0.0048642847197422545
1.45520e-05	0.004842621890564681
1.45523e-05	0.004820959061386961
1.45525e-05	0.004799296232209241
1.45528e-05	0.004777633403031668
1.45530e-05	0.004755970573853947
1.45533e-05	0.004734307744676227
1.45535e-05	0.004712644915498654
1.45538e-05	0.004691438319178584
1.45540e-05	0.0046735596649299955
1.45543e-05	0.004655681010681528
1.45545e-05	0.0046378023564329395
1.45548e-05	0.004619923702184351
1.45550e-05	0.004602045047935884
1.45553e-05	0.004584166393687295
1.45555e-05	0.004566287739438707
1.45558e-05	0.00454840908519024
1.45560e-05	0.0045359195950003105
1.45563e-05	0.004526725249841614
1.45565e-05	0.00451753090468298
1.45568e-05	0.004508336559524284
1.45570e-05	0.004499142214365587
1.45573e-05	0.004489947869206953
1.45575e-05	0.004480753524048257
1.45578e-05	0.00447155917888956
1.45580e-05	0.004465859014581222
1.45583e-05	0.004485646780975395
1.45585e-05	0.004505434547369569
1.45588e-05	0.004525222313763609
1.45590e-05	0.004545010080157783
1.45593e-05	0.004564797846551956
1.45595e-05	0.004584585612945996
1.45598e-05	0.00460437337934017
1.45600e-05	0.004624161145734344
1.45603e-05	0.004643948912128517
1.45605e-05	0.004663736678522557
1.45608e-05	0.004703278648759152
1.45610e-05	0.004754899109451091
1.45613e-05	0.004806519570142681
1.45615e-05	0.004858140030834621
1.45618e-05	0.00490976049152656
1.45620e-05	0.00496138095221815
1.45623e-05	0.005013001412910089
1.45625e-05	0.0050646218736020284
1.45628e-05	0.005116242334293619
1.45630e-05	0.005167862794985558
1.45633e-05	0.005220767316070406
1.45635e-05	0.005283038279168838
1.45638e-05	0.0053453092422676915
1.45640e-05	0.005407580205366545
1.45643e-05	0.005469851168464978
1.45645e-05	0.0055321221315638314
1.45648e-05	0.005594393094662685
1.45650e-05	0.005656664057761117
1.45653e-05	0.005717365214966239
1.45655e-05	0.005766615589980037
1.45658e-05	0.0058158659649935026
1.45660e-05	0.005865116340007301
1.45663e-05	0.0059143667150210995
1.45665e-05	0.005963617090034564
1.45668e-05	0.0060128674650483625
1.45670e-05	0.006062117840062161
1.45673e-05	0.006108780439017805
1.45675e-05	0.006136566780646663
1.45678e-05	0.0061643531222755205
1.45680e-05	0.00619213946390419
1.45683e-05	0.0062199258055330485
1.45685e-05	0.006247712147161907
1.45688e-05	0.006275498488790577
1.45690e-05	0.006303284830419435
1.45693e-05	0.006331071172048292
1.45695e-05	0.00635885751367715
1.45698e-05	0.00638664385530582
1.45700e-05	0.006414430196934678
1.45703e-05	0.006442216538563536
1.45705e-05	0.006470002880192206
1.45708e-05	0.006496290848209516
1.45710e-05	0.006511649089218376
1.45713e-05	0.006527007330227133
1.45715e-05	0.006542365571235994
1.45718e-05	0.006557723812244854
1.45720e-05	0.006573082053253611
1.45723e-05	0.006588440294262472
1.45725e-05	0.006603798535271333
1.45728e-05	0.006619156776280089
1.45730e-05	0.00663451501728895
1.45733e-05	0.006649873258297811
1.45735e-05	0.006665231499306567
1.45738e-05	0.006680589740315428
1.45740e-05	0.006695947981324289
1.45743e-05	0.006710864972702573
1.45745e-05	0.006722172751185158
1.45748e-05	0.006730631599340849
1.45750e-05	0.006739090447496482
1.45753e-05	0.006747549295652173
1.45755e-05	0.006756008143807864
1.45758e-05	0.006764466991963498
1.45760e-05	0.0067729258401191894
1.45763e-05	0.00678138468827488
1.45765e-05	0.006789843536430514
1.45768e-05	0.006798302384586205
1.45770e-05	0.006806761232741896
1.45773e-05	0.00680410551687791
1.45775e-05	0.006794653923206371
1.45778e-05	0.006785202329534833
1.45780e-05	0.006775750735863294
1.45783e-05	0.00676629914219182
1.45785e-05	0.006756847548520281
1.45788e-05	0.006747395954848743
1.45790e-05	0.006737944361177269
1.45793e-05	0.00672849276750573
1.45795e-05	0.006719041173834192
1.45798e-05	0.006706134252370565
1.45800e-05	0.006668022809670537
1.45803e-05	0.006629911366970508
1.45805e-05	0.006591799924270739
1.45808e-05	0.00655368848157071
1.45810e-05	0.006515577038870682
1.45813e-05	0.006477465596170911
1.45815e-05	0.006439354153470883
1.45818e-05	0.006401242710770855
1.45820e-05	0.006363131268071085
1.45823e-05	0.006323132981735818
1.45825e-05	0.006269371315095179
1.45828e-05	0.006215609648454904
1.45830e-05	0.006161847981814265
1.45833e-05	0.0061080863151736255
1.45835e-05	0.00605432464853335
1.45838e-05	0.006000562981892711
1.45840e-05	0.005946801315252072
1.45843e-05	0.005893039648611797
1.45845e-05	0.0058392779819711575
1.45848e-05	0.005786451528641794
1.45850e-05	0.00574044688938987
1.45853e-05	0.005694442250137634
1.45855e-05	0.005648437610885398
1.45858e-05	0.005602432971633473
1.45860e-05	0.0055564283323812375
1.45863e-05	0.005510423693129002
1.45865e-05	0.005464419053876766
1.45868e-05	0.005418414414624841
1.45870e-05	0.005372409775372605
1.45873e-05	0.005341396625404006
1.45875e-05	0.005319549856516735
1.45878e-05	0.005297703087629315
1.45880e-05	0.005275856318741896
1.45883e-05	0.005254009549854625
1.45885e-05	0.005232162780967205
1.45888e-05	0.0052103160120797855
1.45890e-05	0.005188469243192514
1.45893e-05	0.005166622474305094
1.45895e-05	0.005147682244520771
1.45898e-05	0.005149943455239638
1.45900e-05	0.0051522046659585215
1.45903e-05	0.005154465876677405
1.45905e-05	0.005156727087396272
1.45908e-05	0.005158988298115156
1.45910e-05	0.005161249508834039
1.45913e-05	0.0051635107195529065
1.45915e-05	0.00516577193027179
1.45918e-05	0.005168033140990673
1.45920e-05	0.0051702943517095415
1.45923e-05	0.005172555562428425
1.45925e-05	0.0051834697356063185
1.45928e-05	0.005199674667419965
1.45930e-05	0.005215879599233722
1.45933e-05	0.005232084531047479
1.45935e-05	0.005248289462861126
1.45938e-05	0.005264494394674883
1.45940e-05	0.005280699326488639
1.45943e-05	0.005296904258302286
1.45945e-05	0.005313109190116043
1.45948e-05	0.0053293141219297995
1.45950e-05	0.0053455190537435564
1.45953e-05	0.005361015421360119
1.45955e-05	0.005371343242764898
1.45958e-05	0.005381671064169678
1.45960e-05	0.005391998885574387
1.45963e-05	0.005402326706979166
1.45965e-05	0.0054126545283839445
1.45968e-05	0.005422982349788654
1.45970e-05	0.005433310171193433
1.45973e-05	0.005443637992598212
1.45975e-05	0.005453965814002921
1.45978e-05	0.005464293635407701
1.45980e-05	0.00547462145681248
1.45983e-05	0.005484949278217189
1.45985e-05	0.0054952770996219685
1.45988e-05	0.005505604921026747
1.45990e-05	0.005504531189502283
1.45993e-05	0.005496486103957031
1.45995e-05	0.00548844101841178
1.45998e-05	0.005480395932866583
1.46000e-05	0.005472350847321332
1.46003e-05	0.005464305761776081
1.46005e-05	0.005456260676230883
1.46008e-05	0.005448215590685632
1.46010e-05	0.00544017050514038
1.46013e-05	0.005432125419595184
1.46015e-05	0.005424080334049932
1.46018e-05	0.005416035248504681
1.46020e-05	0.005407990162959484
1.46023e-05	0.005399945077414233
1.46025e-05	0.005390773297473441
1.46028e-05	0.005373382965034829
1.46030e-05	0.0053559926325961
1.46033e-05	0.005338602300157371
1.46035e-05	0.005321211967718642
1.46038e-05	0.005303821635280031
1.46040e-05	0.005286431302841302
1.46043e-05	0.0052690409704025725
1.46045e-05	0.005251650637963962
1.46048e-05	0.005234260305525233
1.46050e-05	0.005216869973086504
1.46053e-05	0.005199851477274328
1.46055e-05	0.005185545304207126
1.46058e-05	0.005171239131139925
1.46060e-05	0.005156932958072821
1.46063e-05	0.0051426267850056195
1.46065e-05	0.005128320611938418
1.46068e-05	0.0051140144388713135
1.46070e-05	0.005099708265804113
1.46073e-05	0.005085402092736911
1.46075e-05	0.005071095919669807
1.46078e-05	0.005056789746602606
1.46080e-05	0.005042283930883732
1.46083e-05	0.005026321843064187
1.46085e-05	0.005010359755244534
1.46088e-05	0.00499439766742488
1.46090e-05	0.004978435579605336
1.46093e-05	0.004962473491785683
1.46095e-05	0.00494651140396603
1.46098e-05	0.004930549316146484
1.46100e-05	0.004914587228326831
1.46103e-05	0.004898625140507178
1.46105e-05	0.004882663052687633
1.46108e-05	0.00486670096486798
1.46110e-05	0.004850738877048327
1.46113e-05	0.004834776789228782
1.46115e-05	0.004818814701409128
1.46118e-05	0.004802852613589475
1.46120e-05	0.004784667098054425
1.46123e-05	0.0047651220921197035
1.46125e-05	0.00474557708618485
1.46128e-05	0.0047260320802499966
1.46130e-05	0.004706487074315275
1.46133e-05	0.0046869420683804215
1.46135e-05	0.004667397062445568
1.46138e-05	0.004647852056510846
1.46140e-05	0.004628307050575993
1.46143e-05	0.004608762044641139
1.46145e-05	0.004589217038706418
1.46148e-05	0.004569672032771564
1.46150e-05	0.00455012702683671
1.46153e-05	0.004530582020901989
1.46155e-05	0.004511037014967135
1.46158e-05	0.004492653686442922
1.46160e-05	0.004482744090310782
1.46163e-05	0.004472834494178574
1.46165e-05	0.004462924898046367
1.46168e-05	0.004453015301914227
1.46170e-05	0.00444310570578202
1.46173e-05	0.004433196109649813
1.46175e-05	0.004423286513517673
1.46178e-05	0.0044133769173854654
1.46180e-05	0.004403467321253259
1.46183e-05	0.004393557725121119
1.46185e-05	0.004383648128988911
1.46188e-05	0.0043876428010881
1.46190e-05	0.004400139084932792
1.46193e-05	0.004412635368777567
1.46195e-05	0.004425131652622343
1.46198e-05	0.0044376279364670345
1.46200e-05	0.00445012422031181
1.46203e-05	0.004462620504156587
1.46205e-05	0.004475116788001362
1.46208e-05	0.004487613071846054
1.46210e-05	0.00450010935569083
1.46213e-05	0.004512605639535605
1.46215e-05	0.004527140665922915
1.46218e-05	0.004556547083084141
1.46220e-05	0.004585953500245367
1.46223e-05	0.004615359917406394
1.46225e-05	0.004644766334567621
1.46228e-05	0.0046741727517288474
1.46230e-05	0.004703579168889874
1.46233e-05	0.0047329855860511
1.46235e-05	0.004762392003212327
1.46238e-05	0.004791798420373353
1.46240e-05	0.0048212845082080515
1.46243e-05	0.004851351745302096
1.46245e-05	0.004881418982395937
1.46248e-05	0.004911486219489982
1.46250e-05	0.004941553456584027
1.46253e-05	0.004971620693677867
1.46255e-05	0.005001687930771912
1.46258e-05	0.005031755167865957
1.46260e-05	0.005061822404959798
1.46263e-05	0.005091889642053843
1.46265e-05	0.005120091028877095
1.46268e-05	0.0051346821692208585
1.46270e-05	0.005149273309564721
1.46273e-05	0.005163864449908583
1.46275e-05	0.005178455590252347
1.46278e-05	0.005193046730596209
1.46280e-05	0.005207637870940072
1.46283e-05	0.005222229011283835
1.46285e-05	0.005236820151627698
1.46288e-05	0.005251411291971561
1.46290e-05	0.005266002432315423
1.46293e-05	0.005280593572659187
1.46295e-05	0.005295184713003049
1.46298e-05	0.0053097758533469114
1.46300e-05	0.0053243669936906745
1.46303e-05	0.005338958134034537
1.46305e-05	0.005353549274378399
1.46308e-05	0.005366903781698644
1.46310e-05	0.005371237800866979
1.46313e-05	0.005375571820035314
1.46315e-05	0.005379905839203619
1.46318e-05	0.005384239858371954
1.46320e-05	0.0053885738775402885
1.46323e-05	0.005392907896708594
1.46325e-05	0.0053972419158769295
1.46328e-05	0.005401575935045264
1.46330e-05	0.00540590995421357
1.46333e-05	0.005410243973381904
1.46335e-05	0.005414577992550239
1.46338e-05	0.005418912011718544
1.46340e-05	0.0054232460308868795
1.46343e-05	0.005427580050055215
1.46345e-05	0.00543191406922352
1.46348e-05	0.005436248088391855
1.46350e-05	0.005440129188102387
1.46353e-05	0.005440706514966388
1.46355e-05	0.005441283841830393
1.46358e-05	0.005441861168694397
1.46360e-05	0.005442438495558398
1.46363e-05	0.005443015822422403
1.46365e-05	0.005443593149286407
1.46368e-05	0.005444170476150407
1.46370e-05	0.005444747803014412
1.46373e-05	0.005445325129878416
1.46375e-05	0.0054442735897966815
1.46378e-05	0.005431340452901453
1.46380e-05	0.005418407316006136
1.46383e-05	0.0054054741791108194
1.46385e-05	0.005392541042215591
1.46388e-05	0.005379607905320274
1.46390e-05	0.005366674768424958
1.46393e-05	0.005353741631529729
1.46395e-05	0.005340808494634412
1.46398e-05	0.005327875357739096
1.46400e-05	0.005312449260292955
1.46403e-05	0.005278838527067013
1.46405e-05	0.005245227793841072
1.46408e-05	0.005211617060615358
1.46410e-05	0.0051780063273894165
1.46413e-05	0.005144395594163475
1.46415e-05	0.0051107848609377605
1.46418e-05	0.005077174127711819
1.46420e-05	0.005043563394485877
1.46423e-05	0.005009952661260164
1.46425e-05	0.004975117023010739
1.46428e-05	0.004931346445252189
1.46430e-05	0.004887575867493935
1.46433e-05	0.004843805289735385
1.46435e-05	0.004800034711976833
1.46438e-05	0.0047562641342185795
1.46440e-05	0.004712493556460029
1.46443e-05	0.0046687229787014785
1.46445e-05	0.004624952400943225
1.46448e-05	0.004581181823184673
1.46450e-05	0.00453825540452034
1.46453e-05	0.0045014866146517556
1.46455e-05	0.0044647178247829225
1.46458e-05	0.0044279490349140894
1.46460e-05	0.004391180245045256
1.46463e-05	0.004354411455176673
1.46465e-05	0.00431764266530784
1.46468e-05	0.004280873875439007
1.46470e-05	0.004247096567491647
1.46473e-05	0.004235140306486384
1.46475e-05	0.004223184045481122
1.46478e-05	0.00421122778447594
1.46480e-05	0.0041992715234706775
1.46483e-05	0.0041873152624654145
1.46485e-05	0.004175359001460233
1.46488e-05	0.00416340274045497
1.46490e-05	0.004155785931943002
1.46493e-05	0.00417982279845211
1.46495e-05	0.00420385966496138
1.46498e-05	0.0042278965314706506
1.46500e-05	0.004251933397979758
1.46503e-05	0.004275970264489028
1.46505e-05	0.004300007130998298
1.46508e-05	0.004324043997507405
1.46510e-05	0.004348080864016676
1.46513e-05	0.004375621096788001
1.46515e-05	0.0044287162624277975
1.46518e-05	0.004481811428067953
1.46520e-05	0.004534906593708109
1.46523e-05	0.004588001759347904
1.46525e-05	0.00464109692498806
1.46528e-05	0.004694192090628216
1.46530e-05	0.004747287256268012
1.46533e-05	0.004800382421908168
1.46535e-05	0.004854490088905441
1.46538e-05	0.004915983339446413
1.46540e-05	0.004977476589987802
1.46543e-05	0.005038969840529191
1.46545e-05	0.00510046309107058
1.46548e-05	0.005161956341611552
1.46550e-05	0.005223449592152941
1.46553e-05	0.00528494284269433
1.46555e-05	0.005344652555933243
1.46558e-05	0.005391352445868796
1.46560e-05	0.005438052335804349
1.46563e-05	0.005484752225739586
1.46565e-05	0.005531452115675139
1.46568e-05	0.005578152005610692
1.46570e-05	0.005624851895545928
1.46573e-05	0.0056715517854814814
1.46575e-05	0.0057155103729708764
1.46578e-05	0.0057394728210969975
1.46580e-05	0.005763435269223281
1.46583e-05	0.005787397717349563
1.46585e-05	0.005811360165475684
1.46588e-05	0.005835322613601967
1.46590e-05	0.005859285061728251
1.46593e-05	0.005883247509854372
1.46595e-05	0.005907209957980655
1.46598e-05	0.005931172406106938
1.46600e-05	0.005955134854233058
1.46603e-05	0.005979097302359342
1.46605e-05	0.006003059750485625
1.46608e-05	0.006027022198611746
1.46610e-05	0.006050984646738029
1.46613e-05	0.006065637940793811
1.46615e-05	0.006074599255064987
1.46618e-05	0.006083560569336224
1.46620e-05	0.00609252188360746
1.46623e-05	0.006101483197878636
1.46625e-05	0.006110444512149872
1.46628e-05	0.006119405826421108
1.46630e-05	0.006128367140692344
1.46633e-05	0.00613732845496352
1.46635e-05	0.006146289769234756
1.46638e-05	0.0061552510835059925
1.46640e-05	0.006164212397777168
1.46643e-05	0.006173173712048404
1.46645e-05	0.006182135026319641
1.46648e-05	0.006190123331216344
1.46650e-05	0.0061910141226325125
1.46653e-05	0.006191904914048681
1.46655e-05	0.006192795705464844
1.46658e-05	0.006193686496881012
1.46660e-05	0.006194577288297181
1.46663e-05	0.0061954680797133435
1.46665e-05	0.006196358871129512
1.46668e-05	0.006197249662545682
1.46670e-05	0.006198140453961844
1.46673e-05	0.006199031245378013
1.46675e-05	0.0061999220367941815
1.46678e-05	0.006200812828210344
1.46680e-05	0.006201703619626513
1.46683e-05	0.006202594411042681
1.46685e-05	0.006203485202458844
1.46688e-05	0.0062043759938750125
1.46690e-05	0.006205266785291181
1.46693e-05	0.006206157576707344
1.46695e-05	0.006207048368123513
1.46698e-05	0.006207939159539682
1.46700e-05	0.006208829950955844
1.46703e-05	0.006209720742372013
1.46705e-05	0.006210611533788182
1.46708e-05	0.006211502325204344
1.46710e-05	0.006211764185962208
1.46713e-05	0.006207438378867633
1.46715e-05	0.006203112571773058
1.46718e-05	0.006198786764678512
1.46720e-05	0.006194460957583937
1.46723e-05	0.006190135150489362
1.46725e-05	0.006185809343394816
1.46728e-05	0.006181483536300241
1.46730e-05	0.006177157729205665
1.46733e-05	0.006172831922111119
1.46735e-05	0.006168506115016545
1.46738e-05	0.006164180307921969
1.46740e-05	0.006159854500827424
1.46743e-05	0.0061555286937328485
1.46745e-05	0.006151202886638273
1.46748e-05	0.006146877079543728
1.46750e-05	0.006142551272449152
1.46753e-05	0.0061382254653545775
1.46755e-05	0.0061338996582600315
1.46758e-05	0.006129573851165456
1.46760e-05	0.006125248044070881
1.46763e-05	0.006120922236976335
1.46765e-05	0.00611659642988176
1.46768e-05	0.006112270622787185
1.46770e-05	0.006107944815692639
1.46773e-05	0.006103281481946766
1.46775e-05	0.006096156095909833
1.46778e-05	0.006089030709872949
1.46780e-05	0.0060819053238360165
1.46783e-05	0.006074779937799084
1.46785e-05	0.0060676545517622
1.46788e-05	0.006060529165725267
1.46790e-05	0.0060534037796883345
1.46793e-05	0.00604627839365145
1.46795e-05	0.006039153007614518
1.46798e-05	0.006032027621577586
1.46800e-05	0.006024902235540653
1.46803e-05	0.006017776849503769
1.46805e-05	0.006010651463466837
1.46808e-05	0.006003526077429904
1.46810e-05	0.00599640069139302
1.46813e-05	0.005989275305356087
1.46815e-05	0.005982149919319155
1.46818e-05	0.0059750245332822706
1.46820e-05	0.005967899147245338
1.46823e-05	0.005960467699167737
1.46825e-05	0.005950803714056984
1.46828e-05	0.0059411397289461645
1.46830e-05	0.005931475743835345
1.46833e-05	0.005921811758724591
1.46835e-05	0.0059121477736137715
1.46838e-05	0.005902483788502952
1.46840e-05	0.005892819803392199
1.46843e-05	0.0058831558182813794
1.46845e-05	0.00587349183317056
1.46848e-05	0.005863827848059806
1.46850e-05	0.0058541638629489865
1.46853e-05	0.005844499877838167
1.46855e-05	0.005834835892727414
1.46858e-05	0.005825171907616594
1.46860e-05	0.005815507922505775
1.46863e-05	0.005805843937395021
1.46865e-05	0.005796179952284201
1.46868e-05	0.005786515967173382
1.46870e-05	0.005776851982062629
1.46873e-05	0.0057662171854807745
1.46875e-05	0.0057485009077796155
1.46878e-05	0.005730784630078576
1.46880e-05	0.005713068352377417
1.46883e-05	0.005695352074676257
1.46885e-05	0.005677635796975098
1.46888e-05	0.005659919519274059
1.46890e-05	0.0056422032415729
1.46893e-05	0.00562448696387174
1.46895e-05	0.005606770686170701
1.46898e-05	0.005589054408469542
1.46900e-05	0.0055713381307683826
1.46903e-05	0.005551416083471434
1.46905e-05	0.0055154042842328116
1.46908e-05	0.005479392484994189
1.46910e-05	0.005443380685755812
1.46913e-05	0.00540736888651719
1.46915e-05	0.005371357087278567
1.46918e-05	0.005335345288040189
1.46920e-05	0.005299333488801567
1.46923e-05	0.0052633216895629446
1.46925e-05	0.005227309890324567
1.46928e-05	0.005191298091085945
1.46930e-05	0.005155286291847323
1.46933e-05	0.005118697317933551
1.46935e-05	0.00507789820467696
1.46938e-05	0.005037099091420369
1.46940e-05	0.004996299978164055
1.46943e-05	0.004955500864907465
1.46945e-05	0.004914701751650874
1.46948e-05	0.00487390263839456
1.46950e-05	0.004833103525137969
1.46953e-05	0.004792304411881379
1.46955e-05	0.004751505298625064
1.46958e-05	0.0047107061853684734
1.46960e-05	0.004679208238394412
1.46963e-05	0.0046533973871669175
1.46965e-05	0.004627586535939248
1.46968e-05	0.004601775684711578
1.46970e-05	0.004575964833483909
1.46973e-05	0.004550153982256415
1.46975e-05	0.004524343131028744
1.46978e-05	0.004498532279801075
1.46980e-05	0.004472721428573581
1.46983e-05	0.004446910577345911
1.46985e-05	0.0044237535203054046
1.46988e-05	0.0044199542829945395
1.46990e-05	0.004416155045683649
1.46993e-05	0.004412355808372758
1.46995e-05	0.004408556571061894
1.46998e-05	0.004404757333751003
1.47000e-05	0.004400958096440113
1.47003e-05	0.004397158859129248
1.47005e-05	0.0043933596218183575
1.47008e-05	0.004389560384507467
