Time(s)	Current(A)
3.50000e-06	-0.0033220005721774516
3.50025e-06	-0.003338134523775768
3.50050e-06	-0.0033505455612357375
3.50075e-06	-0.003362956598695707
3.50100e-06	-0.0033730932307228243
3.50125e-06	-0.0033792064321026037
3.50150e-06	-0.0033853196334823832
3.50175e-06	-0.0033879000607463638
3.50200e-06	-0.0033842309990483495
3.50225e-06	-0.003380561937350329
3.50250e-06	-0.0033768928756523087
3.50275e-06	-0.0033732238139542944
3.50300e-06	-0.0033695547522562736
3.50325e-06	-0.003361640971793877
3.50350e-06	-0.003346218269958236
3.50375e-06	-0.003330795568122621
3.50400e-06	-0.00331537286628698
3.50425e-06	-0.003299950164451339
3.50450e-06	-0.003284527462615724
3.50475e-06	-0.003266178480765621
3.50500e-06	-0.0032426529000018044
3.50525e-06	-0.003219127319238027
3.50550e-06	-0.0031956017384742103
3.50575e-06	-0.0031720761577103936
3.50600e-06	-0.0031470943486967755
3.50625e-06	-0.0031195364671478217
3.50650e-06	-0.0030919785855988207
3.50675e-06	-0.00306442070404982
3.50700e-06	-0.003036862822500866
3.50725e-06	-0.003009032986000063
3.50750e-06	-0.0029807220603002924
3.50775e-06	-0.002952604403146024
3.50800e-06	-0.0029248286386807393
3.50825e-06	-0.0028974878440591657
3.50850e-06	-0.002870916512513455
3.50875e-06	-0.002844833628642713
3.50900e-06	-0.002820028674905054
3.50925e-06	-0.0027964360563765777
3.50950e-06	-0.0027742393082658815
3.50975e-06	-0.002753623938574733
3.51000e-06	-0.0027347983064065088
3.51025e-06	-0.0027184339726923443
3.51050e-06	-0.0027042265304012877
3.51075e-06	-0.002691732859204434
3.51100e-06	-0.002682270854676984
3.51125e-06	-0.002674546459239265
3.51150e-06	-0.0026698958999629187
3.51175e-06	-0.0026674687908273716
3.51200e-06	-0.00266897497226117
3.51225e-06	-0.002670481153694966
3.51250e-06	-0.0026757283754321338
3.51275e-06	-0.0026875935096984252
3.51300e-06	-0.0026994586439646967
3.51325e-06	-0.002711323778230988
3.51350e-06	-0.00272318891249728
3.51375e-06	-0.0027350540467635516
3.51400e-06	-0.002756646673642051
3.51425e-06	-0.0027798078617486998
3.51450e-06	-0.002802969049855349
3.51475e-06	-0.0028261302379619583
3.51500e-06	-0.002849291426068607
3.51525e-06	-0.0028747717067722387
3.51550e-06	-0.002904354469862918
3.51575e-06	-0.002933937232953648
3.51600e-06	-0.002964401287158301
3.51625e-06	-0.0029964243482251667
3.51650e-06	-0.003028888433229819
3.51675e-06	-0.0030621326910226497
3.51700e-06	-0.003095537256182018
3.51725e-06	-0.003129225405596918
3.51750e-06	-0.0031627854941048525
3.51775e-06	-0.0031961190424495242
3.51800e-06	-0.003229043350850298
3.51825e-06	-0.0032612437124523064
3.51850e-06	-0.0032922436569607755
3.51875e-06	-0.003321120059705553
3.51900e-06	-0.0033426507169701243
3.51925e-06	-0.005381817518283755
3.51950e-06	-0.011480153666961423
3.51975e-06	-0.014721117135553213
3.52000e-06	-0.013564141494676331
3.52025e-06	-0.011142912476013244
3.52050e-06	-0.007025145376130092
3.52075e-06	-0.0038890731412985504
3.52100e-06	-0.0034575531462150326
3.52125e-06	-0.004899003981067208
3.52150e-06	-0.00783020266488294
3.52175e-06	-0.010236588475810788
3.52200e-06	-0.010113134227711188
3.52225e-06	-0.008312094419593805
3.52250e-06	-0.0059282188701214565
3.52275e-06	-0.0039053350408368307
3.52300e-06	-0.003333837304959994
3.52325e-06	-0.004175003713913467
3.52350e-06	-0.00523270433218396
3.52375e-06	-0.00661070322573965
3.52400e-06	-0.006608822339333876
3.52425e-06	-0.00563519601597912
3.52450e-06	-0.004291507353384529
3.52475e-06	-0.0032398040532245847
3.52500e-06	-0.003000814541743614
3.52525e-06	-0.003469349371358756
3.52550e-06	-0.0043338044126618935
3.52575e-06	-0.004994776494251881
3.52600e-06	-0.004938858781238685
3.52625e-06	-0.004315518123963
3.52650e-06	-0.0034607433790147307
3.52675e-06	-0.0027893392849457515
3.52700e-06	-0.0026275539831592007
3.52725e-06	-0.0029095483187427922
3.52750e-06	-0.003440196511928052
3.52775e-06	-0.0038441214001140246
3.52800e-06	-0.0037998448621960443
3.52825e-06	-0.0034011218240287077
3.52850e-06	-0.002858529824888674
3.52875e-06	-0.0024319950383389294
3.52900e-06	-0.0023259499459327183
3.52925e-06	-0.0024992164277574235
3.52950e-06	-0.0028296384302854216
3.52975e-06	-0.0030821575548515097
3.53000e-06	-0.0030553429274401732
3.53025e-06	-0.002807500948351354
3.53050e-06	-0.002469946786388827
3.53075e-06	-0.0022051716947198035
3.53100e-06	-0.0021411623399588482
3.53125e-06	-0.0022521072911107953
3.53150e-06	-0.0024614752080697553
3.53175e-06	-0.002622022833884788
3.53200e-06	-0.002607583869573215
3.53225e-06	-0.002454695017052119
3.53250e-06	-0.002245619735019868
3.53275e-06	-0.0020821419727913037
3.53300e-06	-0.0020444238374146577
3.53325e-06	-0.002116285073057284
3.53350e-06	-0.0022497776378353693
3.53375e-06	-0.0023526661011821224
3.53400e-06	-0.002345925364790643
3.53425e-06	-0.0022524496763876704
3.53450e-06	-0.002123773093481533
3.53475e-06	-0.0020236519169876096
3.53500e-06	-0.0020022933537090317
3.53525e-06	-0.002049554194662999
3.53550e-06	-0.002135393716109384
3.53575e-06	-0.0022020334194080247
3.53600e-06	-0.0021999745021017217
3.53625e-06	-0.002143562260287688
3.53650e-06	-0.002065079694235236
3.53675e-06	-0.0020044625028526213
3.53700e-06	-0.001993155894638132
3.53725e-06	-0.0020248003674100267
3.53750e-06	-0.002080573889859004
3.53775e-06	-0.0021242822782691134
3.53800e-06	-0.002124920579452459
3.53825e-06	-0.0020914766831871875
3.53850e-06	-0.0020441733159169144
3.53875e-06	-0.0020080246144508714
3.53900e-06	-0.0020027246033930118
3.53925e-06	-0.002024285609275026
3.53950e-06	-0.0020609140618754627
3.53975e-06	-0.0020899341327931323
3.54000e-06	-0.0020918907390449987
3.54025e-06	-0.00207230914525942
3.54050e-06	-0.002043731360204715
3.54075e-06	-0.0020217716297834063
3.54100e-06	-0.002018772860957702
3.54125e-06	-0.002032255917433041
3.54150e-06	-0.0020548524279171477
3.54175e-06	-0.0020723781730071474
3.54200e-06	-0.0020726680810697483
3.54225e-06	-0.0020592049523984004
3.54250e-06	-0.002039866209869603
3.54275e-06	-0.0020244531597843327
3.54300e-06	-0.0020207167013404368
3.54325e-06	-0.0020271233142650255
3.54350e-06	-0.002039077076417685
3.54375e-06	-0.0020477132784767252
3.54400e-06	-0.0020454327071985977
3.54425e-06	-0.002034438195503428
3.54450e-06	-0.0020196848733736606
3.54475e-06	-0.0020073326883009173
3.54500e-06	-0.002002256666364003
3.54525e-06	-0.0020035159088266563
3.54550e-06	-0.00200825147444344
3.54575e-06	-0.0020109307184915997
3.54600e-06	-0.0020068141567331247
3.54625e-06	-0.001997302519333749
3.54650e-06	-0.0019855204163044334
3.54675e-06	-0.0019753467109961957
3.54700e-06	-0.0019698550815157733
3.54725e-06	-0.001968476215456074
3.54750e-06	-0.001968590606108963
3.54775e-06	-0.0019681086466766
3.54800e-06	-0.001965105741926636
3.54825e-06	-0.0019577594376330516
3.54850e-06	-0.001949903652243306
3.54875e-06	-0.0019429233313389082
3.54900e-06	-0.0019379597230719363
3.54925e-06	-0.0019368135129012166
3.54950e-06	-0.001937460883880983
3.54975e-06	-0.0019377754317173354
3.55000e-06	-0.0019361255903667448
3.55025e-06	-0.0019337044196588687
3.55050e-06	-0.0019324896907077199
3.55075e-06	-0.0019343274148707597
3.55100e-06	-0.0019403815851727479
3.55125e-06	-0.00195082913972783
3.55150e-06	-0.001964035119212906
3.55175e-06	-0.001978033249716652
3.55200e-06	-0.0019931420958446133
3.55225e-06	-0.002009685057352646
3.55250e-06	-0.0020282388656841354
3.55275e-06	-0.002049753808235555
3.55300e-06	-0.0020754207091459483
3.55325e-06	-0.002103670975643314
3.55350e-06	-0.002135543511699058
3.55375e-06	-0.0021685081601529993
3.55400e-06	-0.002203004115486113
3.55425e-06	-0.002239289516490096
3.55450e-06	-0.002278083991166282
3.55475e-06	-0.0023168784658425335
3.55500e-06	-0.002357687060388816
3.55525e-06	-0.0024023952454493317
3.55550e-06	-0.0024486114297226154
3.55575e-06	-0.0024952229746769126
3.55600e-06	-0.0025424514892668183
3.55625e-06	-0.002590068220108897
3.55650e-06	-0.0026381061877535287
3.55675e-06	-0.002686728182312346
3.55700e-06	-0.0027361690710003142
3.55725e-06	-0.0027857776414675593
3.55750e-06	-0.0028354637256816266
3.55775e-06	-0.002884449239482387
3.55800e-06	-0.0029321930508155467
3.55825e-06	-0.002978589026807182
3.55850e-06	-0.003023652019853733
3.55875e-06	-0.0030673761872942263
3.55900e-06	-0.003109650845823762
3.55925e-06	-0.0031501337477488718
3.55950e-06	-0.00318841018251318
3.55975e-06	-0.0032232498498131826
3.56000e-06	-0.003255288859779139
3.56025e-06	-0.003284334507668836
3.56050e-06	-0.0033091830088667878
3.56075e-06	-0.0033302706403759118
3.56100e-06	-0.003346084963354179
3.56125e-06	-0.003361899286332446
3.56150e-06	-0.0033729112548436815
3.56175e-06	-0.003377189595531038
3.56200e-06	-0.003381467936218395
3.56225e-06	-0.003380729748543679
3.56250e-06	-0.003372957628827865
3.56275e-06	-0.003365185509112051
3.56300e-06	-0.0033518067762522627
3.56325e-06	-0.00333056672317472
3.56350e-06	-0.003309326670097177
3.56375e-06	-0.003288086617019634
3.56400e-06	-0.0032668465639421273
3.56425e-06	-0.003232763322863353
3.56450e-06	-0.003197506813297715
3.56475e-06	-0.0031622503037321364
3.56500e-06	-0.0031269937941664984
3.56525e-06	-0.003088552160047871
3.56550e-06	-0.00304564449922083
3.56575e-06	-0.003001265164233835
3.56600e-06	-0.0029548223193288756
3.56625e-06	-0.0029075158163343502
3.56650e-06	-0.002858581552677908
3.56675e-06	-0.0028087896644879064
3.56700e-06	-0.0027584671395850186
3.56725e-06	-0.0027079105314646444
3.56750e-06	-0.00265740500284591
3.56775e-06	-0.0026072198512412143
3.56800e-06	-0.002557626716425543
3.56825e-06	-0.0025089306951271676
3.56850e-06	-0.002461458305535939
3.56875e-06	-0.002415560993518521
3.56900e-06	-0.0023715977163958494
3.56925e-06	-0.002329907983352928
3.56950e-06	-0.002290824297602324
3.56975e-06	-0.0022546617505058396
3.57000e-06	-0.002221606955339961
3.57025e-06	-0.0021915408414821622
3.57050e-06	-0.002164170178628561
3.57075e-06	-0.0021393882556787844
3.57100e-06	-0.0021172902784711923
3.57125e-06	-0.0020980032776965994
3.57150e-06	-0.002082295734333182
3.57175e-06	-0.002069247439401532
3.57200e-06	-0.0020586815617484036
3.57225e-06	-0.002051596408846689
3.57250e-06	-0.002047155797918846
3.57275e-06	-0.0020464232351036964
3.57300e-06	-0.002045690672288546
3.57325e-06	-0.0020489724629648657
3.57350e-06	-0.00205788298482976
3.57375e-06	-0.0020667935066946536
3.57400e-06	-0.002075704028559548
3.57425e-06	-0.0020846145504244268
3.57450e-06	-0.0020974772445953287
3.57475e-06	-0.0021158814825213415
3.57500e-06	-0.0021342857204473225
3.57525e-06	-0.0021526899583733353
3.57550e-06	-0.0021710941962993476
3.57575e-06	-0.0021912910202946997
3.57600e-06	-0.0022148213142554863
3.57625e-06	-0.0022395013624827965
3.57650e-06	-0.0022641814107101066
3.57675e-06	-0.0022894595885676445
3.57700e-06	-0.0023155764346969427
3.57725e-06	-0.0023418820924483064
3.57750e-06	-0.0023684524926713972
3.57775e-06	-0.002394961054180531
3.57800e-06	-0.0024213829084530156
3.57825e-06	-0.0024473936031255013
3.57850e-06	-0.0024728277898075635
3.57875e-06	-0.0024973836922842396
3.57900e-06	-0.0025207081073719316
3.57925e-06	-0.002544032522459584
3.57950e-06	-0.002564290541727472
3.57975e-06	-0.0025842684354078125
3.58000e-06	-0.0026032730090534213
3.58025e-06	-0.0026209128406932476
3.58050e-06	-0.0026389308771325023
3.58075e-06	-0.002657479213943866
3.58100e-06	-0.002676435840272071
3.58125e-06	-0.002695964950299759
3.58150e-06	-0.0027154940603274468
3.58175e-06	-0.002735023170355101
3.58200e-06	-0.002754552280382789
3.58225e-06	-0.002776185124336698
3.58250e-06	-0.002798010151471377
3.58275e-06	-0.0028198351786060194
3.58300e-06	-0.002841660205740699
3.58325e-06	-0.0028648051264857145
3.58350e-06	-0.0028898007378453435
3.58375e-06	-0.002914796349205014
3.58400e-06	-0.0029397919605646853
3.58425e-06	-0.002964787571924314
3.58450e-06	-0.0029922996139206156
3.58475e-06	-0.003020041540332409
3.58500e-06	-0.0030477834667442015
3.58525e-06	-0.0030755253931559474
3.58550e-06	-0.003103795468709726
3.58575e-06	-0.0031328060892987833
3.58600e-06	-0.003161816709887792
3.58625e-06	-0.0031909580188771267
3.58650e-06	-0.0032202825727840442
3.58675e-06	-0.003249607126690962
3.58700e-06	-0.0032787547908595073
3.58725e-06	-0.0033076544288417565
3.58750e-06	-0.003336554066824006
3.58775e-06	-0.0033646778777219463
3.58800e-06	-0.0033917138616221753
3.58825e-06	-0.0034187498455224043
3.58850e-06	-0.0034447242002150088
3.58875e-06	-0.003469209990075297
3.58900e-06	-0.0034936957799355855
3.58925e-06	-0.0035168828921846307
3.58950e-06	-0.003538249061860779
3.58975e-06	-0.0035577697627053907
3.59000e-06	-0.0035747028369264057
3.59025e-06	-0.0035916359111473916
3.59050e-06	-0.0036057067317049425
3.59075e-06	-0.0036157642394086496
3.59100e-06	-0.0036258217471123568
3.59125e-06	-0.0036312772946147823
3.59150e-06	-0.003630280197383334
3.59175e-06	-0.003629283100151886
3.59200e-06	-0.00362828600292044
3.59225e-06	-0.003627288905688992
3.59250e-06	-0.0036262918084575438
3.59275e-06	-0.0036192852418001947
3.59300e-06	-0.003603852489441774
3.59325e-06	-0.003588419737083353
3.59350e-06	-0.0035729869847249316
3.59375e-06	-0.0035575542323665367
3.59400e-06	-0.003542121480008116
3.59425e-06	-0.0035220135414116586
3.59450e-06	-0.003495350284094598
3.59475e-06	-0.003468687026777493
3.59500e-06	-0.003442023769460387
3.59525e-06	-0.003415360512143282
3.59550e-06	-0.0033886972548262217
3.59575e-06	-0.0033561058660278777
3.59600e-06	-0.003322972922449131
3.59625e-06	-0.00328983997887044
3.59650e-06	-0.0032567070352916934
3.59675e-06	-0.0032235740917129466
3.59700e-06	-0.003189727958668277
3.59725e-06	-0.003154881826047108
3.59750e-06	-0.0031201767690501136
3.59775e-06	-0.0030856695214307828
3.59800e-06	-0.003051631782793647
3.59825e-06	-0.0030182523668121756
3.59850e-06	-0.002985675787927946
3.59875e-06	-0.002954224908167913
3.59900e-06	-0.002923951484046756
3.59925e-06	-0.0028953290309457766
3.59950e-06	-0.002868686014402323
3.59975e-06	-0.002844818467511191
3.60000e-06	-0.002820950920620018
3.60025e-06	-0.0028005645056233316
3.60050e-06	-0.002785059164431266
3.60075e-06	-0.002769553823239174
3.60100e-06	-0.002754048482047082
3.60125e-06	-0.002738543140855017
3.60150e-06	-0.002723037799662925
3.60175e-06	-0.0027075324584708333
3.60200e-06	-0.0026920271172787415
3.60225e-06	-0.002686278751239786
3.60250e-06	-0.0026814217177486507
3.60275e-06	-0.0026765646842575154
3.60300e-06	-0.0026717076507663884
3.60325e-06	-0.002666850617275253
3.60350e-06	-0.002661993583784118
3.60375e-06	-0.002657136550292991
3.60400e-06	-0.002655707862859872
3.60425e-06	-0.0026590862354992904
3.60450e-06	-0.002662464608138709
3.60475e-06	-0.0026658429807781213
3.60500e-06	-0.00266922135341754
3.60525e-06	-0.002672599726056958
3.60550e-06	-0.002675978098696371
3.60575e-06	-0.002679356471335789
3.60600e-06	-0.0026845481334131934
3.60625e-06	-0.0026922823017340894
3.60650e-06	-0.002700016470054972
3.60675e-06	-0.002707750638375868
3.60700e-06	-0.002715484806696764
3.60725e-06	-0.0027232189750176464
3.60750e-06	-0.0027309531433385424
3.60775e-06	-0.0027386873116594383
3.60800e-06	-0.0027466121331941587
3.60825e-06	-0.00275480427939112
3.60850e-06	-0.0027629964255880815
3.60875e-06	-0.002771188571785043
3.60900e-06	-0.0027787813767782463
3.60925e-06	-0.002785533814690174
3.60950e-06	-0.0027922862526021017
3.60975e-06	-0.002799038690514018
3.61000e-06	-0.0028054833725899174
3.61025e-06	-0.002811496534403137
3.61050e-06	-0.002817509696216356
3.61075e-06	-0.0028244192516824265
3.61100e-06	-0.0028325856867240247
3.61125e-06	-0.0028407521217656225
3.61150e-06	-0.0028489185568072064
3.61175e-06	-0.0028570849918488047
3.61200e-06	-0.0028652514268904025
3.61225e-06	-0.0028734178619319864
3.61250e-06	-0.002883089126708955
3.61275e-06	-0.002894870390539361
3.61300e-06	-0.0029066516543697677
3.61325e-06	-0.0029184329182001542
3.61350e-06	-0.0029302141820305603
3.61375e-06	-0.002941995445860967
3.61400e-06	-0.002953776709691353
3.61425e-06	-0.0029670470947478845
3.61450e-06	-0.0029824054531503484
3.61475e-06	-0.0029977638115528124
3.61500e-06	-0.0030131221699552504
3.61525e-06	-0.003028480528357715
3.61550e-06	-0.003043838886760179
3.61575e-06	-0.003059197245162617
3.61600e-06	-0.003074555603565081
3.61625e-06	-0.0030899139619675452
3.61650e-06	-0.003105868972975269
3.61675e-06	-0.0031218784902084288
3.61700e-06	-0.0031378880074415887
3.61725e-06	-0.003153897524674748
3.61750e-06	-0.003169907041907881
3.61775e-06	-0.0031859165591410408
3.61800e-06	-0.0032019260763742003
3.61825e-06	-0.0032179355936073333
3.61850e-06	-0.003232909714338464
3.61875e-06	-0.0032464320524605936
3.61900e-06	-0.003259954390582723
3.61925e-06	-0.0032734767287048295
3.61950e-06	-0.0032857420592688324
3.61975e-06	-0.0032962448749810757
3.62000e-06	-0.0033067476906933012
3.62025e-06	-0.0033172505064055446
3.62050e-06	-0.003327279281850616
3.62075e-06	-0.003336643381092393
3.62100e-06	-0.0033460074803341863
3.62125e-06	-0.0033553715795759794
3.62150e-06	-0.0033647356788177726
3.62175e-06	-0.00337409977805955
3.62200e-06	-0.0033834638773013433
3.62225e-06	-0.0033928279765431365
3.62250e-06	-0.003402201998572288
3.62275e-06	-0.003411589933851225
3.62300e-06	-0.0034209778691301623
3.62325e-06	-0.0034303658044090996
3.62350e-06	-0.0034397537396880207
3.62375e-06	-0.003449141674966958
3.62400e-06	-0.003458529610245895
3.62425e-06	-0.0034679175455248168
3.62450e-06	-0.00347754890024854
3.62475e-06	-0.003487521565876789
3.62500e-06	-0.0034974942315050207
3.62525e-06	-0.00350746689713327
3.62550e-06	-0.003517439562761519
3.62575e-06	-0.0035274122283897678
3.62600e-06	-0.003537384894018
3.62625e-06	-0.0035473575596462487
3.62650e-06	-0.003557330225274498
3.62675e-06	-0.00356730289090273
3.62700e-06	-0.003577275556530979
3.62725e-06	-0.0035864607522204197
3.62750e-06	-0.003594541795867514
3.62775e-06	-0.0036026228395145943
3.62800e-06	-0.0036107038831616886
3.62825e-06	-0.003618784926808783
3.62850e-06	-0.003626865970455863
3.62875e-06	-0.0036349470141029574
3.62900e-06	-0.0036430280577500517
3.62925e-06	-0.003651109101397132
3.62950e-06	-0.0036591901450442263
3.62975e-06	-0.0036672711886913205
3.63000e-06	-0.0036741325652452786
3.63025e-06	-0.003679283783930935
3.63050e-06	-0.0036844350026166003
3.63075e-06	-0.003689586221302265
3.63100e-06	-0.0036947374399879216
3.63125e-06	-0.0036998886586735867
3.63150e-06	-0.003705039877359252
3.63175e-06	-0.0037101910960449166
3.63200e-06	-0.003715342314730573
3.63225e-06	-0.0037204935334162383
3.63250e-06	-0.003725337720421272
3.63275e-06	-0.003730153859047977
3.63300e-06	-0.00373496999767469
3.63325e-06	-0.003739786136301403
3.63350e-06	-0.003744602274928108
3.63375e-06	-0.003749418413554821
3.63400e-06	-0.0037542345521815344
3.63425e-06	-0.0037590506908082473
3.63450e-06	-0.003763866829434952
3.63475e-06	-0.0037687338496162175
3.63500e-06	-0.0037736722134381877
3.63525e-06	-0.0037786105772601494
3.63550e-06	-0.003783548941082119
3.63575e-06	-0.0037884873049040895
3.63600e-06	-0.0037934256687260598
3.63625e-06	-0.0037983640325480214
3.63650e-06	-0.0038033023963699912
3.63675e-06	-0.0038082407601919615
3.63700e-06	-0.0038128752398285232
3.63725e-06	-0.0038170836278424956
3.63750e-06	-0.0038212920158564676
3.63775e-06	-0.0038255004038704327
3.63800e-06	-0.003829708791884405
3.63825e-06	-0.003833917179898377
3.63850e-06	-0.0038381255679123495
3.63875e-06	-0.0038423339559263145
3.63900e-06	-0.0038465423439402865
3.63925e-06	-0.0038503283881843116
3.63950e-06	-0.0038535222425386305
3.63975e-06	-0.0038563211239156913
3.64000e-06	-0.0038585661933971255
3.64025e-06	-0.003859102992636151
3.64050e-06	-0.0038572445384385074
3.64075e-06	-0.0038524016393468776
3.64100e-06	-0.003843374096800481
3.64125e-06	-0.0038343465542541
3.64150e-06	-0.0038221026877905883
3.64175e-06	-0.0038053490483856162
3.64200e-06	-0.003788595408980672
3.64225e-06	-0.003767974329878572
3.64250e-06	-0.0037419305149611662
3.64275e-06	-0.0037158867000437606
3.64300e-06	-0.00368512317613136
3.64325e-06	-0.0036477419058518804
3.64350e-06	-0.0036103606355724002
3.64375e-06	-0.003572979365292984
3.64400e-06	-0.0035355980950135036
3.64425e-06	-0.0034878343616117176
3.64450e-06	-0.003439122155228162
