Time(s)	Current(A)
1.05000e-05	-0.00504473390812562
1.05002e-05	-0.005048815688009566
1.05005e-05	-0.00505289746789354
1.05008e-05	-0.005056979247777513
1.05010e-05	-0.005055544085494218
1.05013e-05	-0.005051412428112356
1.05015e-05	-0.005047280770730494
1.05017e-05	-0.005039564094895919
1.05020e-05	-0.0050300951830593525
1.05023e-05	-0.005020626271222787
1.05025e-05	-0.005008340432570654
1.05028e-05	-0.004994677775180616
1.05030e-05	-0.004981015117790578
1.05033e-05	-0.004964999287026156
1.05035e-05	-0.004947833304551389
1.05038e-05	-0.004930667322076505
1.05040e-05	-0.004912253438311515
1.05043e-05	-0.0048932296225208316
1.05045e-05	-0.004874205806730019
1.05048e-05	-0.004854655785089837
1.05050e-05	-0.004834848571793479
1.05053e-05	-0.0048150413584969855
1.05055e-05	-0.004795550473424581
1.05058e-05	-0.004776214198910116
1.05060e-05	-0.004756877924395521
1.05063e-05	-0.0047391270295070575
1.05065e-05	-0.004722151014663164
1.05068e-05	-0.004705174999819155
1.05070e-05	-0.004688779807093398
1.05073e-05	-0.004675186621932648
1.05075e-05	-0.004661593436771807
1.05078e-05	-0.004648000251610966
1.05080e-05	-0.004635743571814991
1.05083e-05	-0.004624140130725599
1.05085e-05	-0.004612536689636207
1.05087e-05	-0.004600933248546895
1.05090e-05	-0.004589329807457502
1.05093e-05	-0.004579107617624705
1.05095e-05	-0.0045695605367801284
1.05098e-05	-0.004560013455935488
1.05100e-05	-0.004550466375090847
1.05102e-05	-0.0045409192942462715
1.05105e-05	-0.004532471254462397
1.05108e-05	-0.0045245603888493914
1.05110e-05	-0.00451664952323644
1.05113e-05	-0.004508738657623434
1.05115e-05	-0.004500827792010428
1.05118e-05	-0.004492916926397424
1.05120e-05	-0.004485006060784472
1.05123e-05	-0.004477095195171466
1.05125e-05	-0.0044691843295584606
1.05128e-05	-0.004461273463945509
1.05130e-05	-0.004453362598332504
1.05133e-05	-0.0044466052208303386
1.05135e-05	-0.004440411629379277
1.05138e-05	-0.004434218037928174
1.05140e-05	-0.0044280244464770715
1.05143e-05	-0.00442183085502601
1.05145e-05	-0.004415637263574907
1.05148e-05	-0.004409443672123804
1.05150e-05	-0.004403250080672743
1.05153e-05	-0.00439705648922164
1.05155e-05	-0.0043908628977705364
1.05158e-05	-0.004384669306319476
1.05160e-05	-0.004379293350845732
1.05163e-05	-0.004374317028237388
1.05165e-05	-0.004369340705629077
1.05168e-05	-0.004364541101336815
1.05170e-05	-0.004360594023219513
1.05172e-05	-0.004356646945102237
1.05175e-05	-0.004352699866984935
1.05178e-05	-0.004351031921955228
1.05180e-05	-0.004350477940243764
1.05183e-05	-0.0043499239585322955
1.05185e-05	-0.004352860465194977
1.05187e-05	-0.004357503004749125
1.05190e-05	-0.004362145544303304
1.05193e-05	-0.004366788083857483
1.05195e-05	-0.004372591927531236
1.05198e-05	-0.004383998145543427
1.05200e-05	-0.004395404363555618
1.05203e-05	-0.004406810581567809
1.05205e-05	-0.004418216799579923
1.05208e-05	-0.0044333549399557075
1.05210e-05	-0.004450317118007179
1.05213e-05	-0.004467279296058536
1.05215e-05	-0.004486779398180353
1.05218e-05	-0.00450751995191704
1.05220e-05	-0.004528260505653586
1.05223e-05	-0.004550975660654252
1.05225e-05	-0.004574655934097713
1.05228e-05	-0.004599474113354142
1.05230e-05	-0.004624848462560828
1.05233e-05	-0.004650996481374104
1.05235e-05	-0.004677522643774766
1.05238e-05	-0.0047045256443867395
1.05240e-05	-0.0047320094318301946
1.05243e-05	-0.0047597512977084885
1.05245e-05	-0.004787582331742792
1.05248e-05	-0.004815330072323746
1.05250e-05	-0.004842822231802326
1.05253e-05	-0.0048698926112641155
1.05255e-05	-0.004896405288531542
1.05257e-05	-0.004922257500036673
1.05260e-05	-0.004947325773537827
1.05263e-05	-0.004971443344348003
1.05265e-05	-0.004994425782487419
1.05268e-05	-0.005016087449008159
1.05270e-05	-0.0050362430107177125
1.05272e-05	-0.005054644264971048
1.05275e-05	-0.00507067854082705
1.05278e-05	-0.005083367675756065
1.05280e-05	-0.005092021508199502
1.05283e-05	-0.0050951236918709815
1.05285e-05	-0.005096186330928621
1.05288e-05	-0.0050905728179861925
1.05290e-05	-0.005081696227307124
1.05293e-05	-0.005072819636627994
1.05295e-05	-0.0050546034394956954
1.05298e-05	-0.005031822357998181
1.05300e-05	-0.005009041276500511
1.05303e-05	-0.004983646381254832
1.05305e-05	-0.004945641900952756
1.05308e-05	-0.004907637420650422
1.05310e-05	-0.004869632940348088
1.05313e-05	-0.004823612656974835
1.05315e-05	-0.004773674519642237
1.05318e-05	-0.004723736382309638
1.05320e-05	-0.004667059744830556
1.05323e-05	-0.004607089555944629
1.05325e-05	-0.004547119367058702
1.05328e-05	-0.004482925977434458
1.05330e-05	-0.004416668429847301
1.05333e-05	-0.004348102853949447
1.05335e-05	-0.004278409191723719
1.05338e-05	-0.004206985524810388
1.05340e-05	-0.0041347162900040885
1.05342e-05	-0.004061619899639597
1.05345e-05	-0.0039881192235590125
1.05348e-05	-0.0039149452496833985
1.05350e-05	-0.0038419309568179013
1.05353e-05	-0.003769875970474297
1.05355e-05	-0.003699251200390615
1.05357e-05	-0.0036302550065653054
1.05360e-05	-0.00356324065010547
1.05363e-05	-0.0034996679775556538
1.05365e-05	-0.0034374393314267056
1.05368e-05	-0.0033799354341312545
1.05370e-05	-0.003324740834577312
1.05373e-05	-0.003273728930318565
1.05375e-05	-0.003226882213807419
1.05378e-05	-0.0031817858577722923
1.05380e-05	-0.0031372158737479868
1.05383e-05	-0.0030927326479556418
1.05385e-05	-0.0030496346353415544
1.05388e-05	-0.003007213668169965
1.05390e-05	-0.0029647927009986627
1.05393e-05	-0.0029247337433300573
1.05395e-05	-0.0028858292561746795
1.05398e-05	-0.0028466345060744326
1.05400e-05	-0.002807297885244433
1.05403e-05	-0.0027679612644144337
1.05405e-05	-0.002728624643584701
1.05408e-05	-0.002689468459647451
1.05410e-05	-0.0026504004671725674
1.05413e-05	-0.002611332474697948
1.05415e-05	-0.0025722644822230643
1.05418e-05	-0.0025329714030327853
1.05420e-05	-0.00249356830905429
1.05423e-05	-0.002454165215075527
1.05425e-05	-0.0024147621210967645
1.05427e-05	-0.002375591581536046
1.05430e-05	-0.002336534706724397
1.05433e-05	-0.0022974778319127475
1.05435e-05	-0.0022584209571013627
1.05438e-05	-0.0022199660338391527
1.05440e-05	-0.002181805324174927
1.05442e-05	-0.0021439674851198983
1.05445e-05	-0.002106287454319496
1.05448e-05	-0.002069562038291175
1.05450e-05	-0.0020333032057398815
1.05453e-05	-0.001998138254745232
1.05455e-05	-0.001964283502437201
1.05458e-05	-0.0019314784184784582
1.05460e-05	-0.0018996841454579207
1.05463e-05	-0.001869042586441332
1.05465e-05	-0.0018397703428768423
1.05468e-05	-0.001812090735814519
1.05470e-05	-0.00178622724620927
1.05473e-05	-0.0017624759172391233
1.05475e-05	-0.0017415600226621812
1.05478e-05	-0.0017246307400908146
1.05480e-05	-0.0017124996066776403
1.05483e-05	-0.0017053372580301122
1.05485e-05	-0.0017030650110751156
1.05488e-05	-0.001705582048387167
1.05490e-05	-0.0017127874378821905
1.05493e-05	-0.001726289999441434
1.05495e-05	-0.0017421234145325254
1.05498e-05	-0.0017652126212927628
1.05500e-05	-0.0017918482140961219
1.05503e-05	-0.0018256881848062686
1.05505e-05	-0.0018630494122475944
1.05508e-05	-0.001905313948715082
1.05510e-05	-0.001952971756161827
1.05512e-05	-0.002004915320137796
1.05515e-05	-0.002061036983041264
1.05518e-05	-0.002121396457888345
1.05520e-05	-0.0021859205447443564
1.05523e-05	-0.0022542846884790013
1.05525e-05	-0.002326066167951825
1.05527e-05	-0.0024008338607629694
1.05530e-05	-0.002478156641000368
1.05533e-05	-0.002557621134962203
1.05535e-05	-0.002638919333043164
1.05538e-05	-0.0027218480170591243
1.05540e-05	-0.0028061205911026625
1.05543e-05	-0.0028912932089516633
1.05545e-05	-0.0029768603873875834
1.05548e-05	-0.0030623115323237847
1.05550e-05	-0.0031471361225971256
1.05553e-05	-0.0032308346644142924
1.05555e-05	-0.003312973458336369
1.05558e-05	-0.0033931850624085553
1.05560e-05	-0.003471049621581354
1.05563e-05	-0.0035460484499007863
1.05565e-05	-0.003617624800105093
1.05568e-05	-0.0036852184017124924
1.05570e-05	-0.0037482691441479846
1.05573e-05	-0.0038062980805997166
1.05575e-05	-0.003859347076820573
1.05578e-05	-0.003908112330960854
1.05580e-05	-0.003953165849531139
1.05583e-05	-0.0039945243916485575
1.05585e-05	-0.00403054029170422
1.05588e-05	-0.004064547069855017
1.05590e-05	-0.0040925501280711365
1.05593e-05	-0.004117618770642705
1.05595e-05	-0.004136937829748438
1.05597e-05	-0.0041534466865366035
1.05600e-05	-0.004165339330313278
1.05603e-05	-0.004174975724992857
1.05605e-05	-0.004180049861787912
1.05608e-05	-0.004182894120930797
1.05610e-05	-0.004181063832967969
1.05612e-05	-0.004176948784172045
1.05615e-05	-0.0041686027150549835
1.05618e-05	-0.004158188666025598
1.05620e-05	-0.004144538091323761
1.05623e-05	-0.004129305612123994
1.05625e-05	-0.004111154238739525
1.05628e-05	-0.004091576208406602
1.05630e-05	-0.004069293227697789
1.05633e-05	-0.004045688158552229
1.05635e-05	-0.004019940210703369
1.05638e-05	-0.003993144896078645
1.05640e-05	-0.003965113618062118
1.05643e-05	-0.003936478242860416
1.05645e-05	-0.003907089685361806
1.05648e-05	-0.0038773329977802675
1.05650e-05	-0.003847241162843519
1.05653e-05	-0.0038169855191928347
1.05655e-05	-0.0037870304603374217
1.05658e-05	-0.003757222317183635
1.05660e-05	-0.0037285664678765886
1.05663e-05	-0.0037004738209052437
1.05665e-05	-0.0036746670467567755
1.05668e-05	-0.0036499775300834576
1.05670e-05	-0.003625288013409972
1.05673e-05	-0.0036028806682897466
1.05675e-05	-0.0035823249071937477
1.05678e-05	-0.0035618020857360396
1.05680e-05	-0.0035411195068296227
1.05682e-05	-0.0035195974695533564
1.05685e-05	-0.0034976651333620203
1.05688e-05	-0.0034757327971706837
1.05690e-05	-0.0034536867902985207
1.05693e-05	-0.0034315852250343553
1.05695e-05	-0.0034087051159568333
1.05697e-05	-0.003385444480943609
1.05700e-05	-0.0033621838459302277
1.05703e-05	-0.0033369499650483616
1.05705e-05	-0.0033107516281939624
1.05708e-05	-0.0032845532913393853
1.05710e-05	-0.003257198080596488
1.05713e-05	-0.0032292774289477623
1.05715e-05	-0.0032013567772992257
1.05718e-05	-0.0031730208855802492
1.05720e-05	-0.0031426817887743705
1.05723e-05	-0.003112342691968697
1.05725e-05	-0.0030820035951628177
1.05728e-05	-0.0030506508487751723
1.05730e-05	-0.003018802664688329
1.05733e-05	-0.002986954480601269
1.05735e-05	-0.0029551062965142093
1.05738e-05	-0.0029232581124273654
1.05740e-05	-0.002891494365662341
1.05743e-05	-0.002860137962227523
1.05745e-05	-0.0028287815587929167
1.05748e-05	-0.0027974251553580984
1.05750e-05	-0.00276606875192328
1.05753e-05	-0.002734712348488674
1.05755e-05	-0.0027052649755534533
1.05758e-05	-0.002676750672286451
1.05760e-05	-0.002648236369019642
1.05763e-05	-0.0026219002889736613
1.05765e-05	-0.0025966288509114703
1.05767e-05	-0.0025713574128494506
1.05770e-05	-0.0025492855398938086
1.05773e-05	-0.002528777506359918
1.05775e-05	-0.0025082694728261654
1.05778e-05	-0.002490816811276323
1.05780e-05	-0.002474857512417283
1.05782e-05	-0.0024588982135583513
1.05785e-05	-0.002442938914699311
1.05788e-05	-0.002427885675396834
1.05790e-05	-0.0024172034572062097
1.05793e-05	-0.002406521239015513
1.05795e-05	-0.002395839020824817
1.05798e-05	-0.0023851568026341204
1.05800e-05	-0.0023784600534823806
1.05803e-05	-0.0023737112670662495
1.05805e-05	-0.002368962480650118
1.05808e-05	-0.0023642136942340184
1.05810e-05	-0.002359464907817887
1.05813e-05	-0.0023547161214017556
1.05815e-05	-0.0023499673349856565
1.05818e-05	-0.002345218548569525
1.05820e-05	-0.0023414123151540823
1.05823e-05	-0.0023421531548703444
1.05825e-05	-0.002342893994586612
1.05828e-05	-0.002343634834302879
1.05830e-05	-0.0023443756740191414
1.05833e-05	-0.0023451165137354088
1.05835e-05	-0.002345857353451676
1.05838e-05	-0.0023465981931679388
1.05840e-05	-0.002347339032884206
1.05843e-05	-0.0023495680203243128
1.05845e-05	-0.002352524364139027
1.05848e-05	-0.0023554807079537617
1.05850e-05	-0.0023584370517684967
1.05853e-05	-0.002361393395583211
1.05855e-05	-0.0023643497393979456
1.05858e-05	-0.0023673060832126802
1.05860e-05	-0.002370262427027395
1.05863e-05	-0.0023732187708421296
1.05865e-05	-0.002376175114656864
1.05867e-05	-0.0023776627999100718
1.05870e-05	-0.002378432654433314
1.05873e-05	-0.002379202508956556
1.05875e-05	-0.002379972363479793
1.05878e-05	-0.002380742218003035
1.05880e-05	-0.0023815120725262768
1.05883e-05	-0.002382281927049519
1.05885e-05	-0.002383051781572756
1.05888e-05	-0.002383821636095998
1.05890e-05	-0.00238459149061924
1.05893e-05	-0.002381964576652952
1.05895e-05	-0.0023776774369075227
1.05898e-05	-0.0023733902971620935
1.05900e-05	-0.0023691031574166934
1.05903e-05	-0.0023648160176712642
1.05905e-05	-0.002360528877925835
1.05908e-05	-0.002356241738180435
1.05910e-05	-0.002351954598435006
1.05913e-05	-0.002344888046329065
1.05915e-05	-0.002336463011280846
1.05918e-05	-0.00232803797623257
1.05920e-05	-0.0023196129411842937
1.05923e-05	-0.0023111879061360743
1.05925e-05	-0.002302762871087798
1.05928e-05	-0.002294337836039522
1.05930e-05	-0.002285912800991303
1.05933e-05	-0.0022761653570545744
1.05935e-05	-0.002265771564291222
1.05938e-05	-0.0022553777715279403
1.05940e-05	-0.002244983978764588
1.05943e-05	-0.0022345901860012355
1.05945e-05	-0.0022241963932379534
1.05948e-05	-0.002213802600474601
1.05950e-05	-0.0022034088077112486
1.05952e-05	-0.0021930150149479665
1.05955e-05	-0.002182621222184614
1.05958e-05	-0.0021739448289384198
1.05960e-05	-0.0021661078426053414
1.05963e-05	-0.0021582708562722097
1.05965e-05	-0.0021504338699390776
1.05968e-05	-0.002142596883605946
1.05970e-05	-0.002134759897272867
1.05973e-05	-0.0021269229109397354
1.05975e-05	-0.0021190859246066037
1.05978e-05	-0.002111248938273525
1.05980e-05	-0.002103411951940393
1.05983e-05	-0.0020994803941028176
1.05985e-05	-0.002097457677886085
1.05988e-05	-0.0020954349616693385
1.05990e-05	-0.002093412245452592
1.05993e-05	-0.0020913895292358595
1.05995e-05	-0.002089366813019113
1.05998e-05	-0.0020873440968023666
1.06000e-05	-0.002085321380585634
1.06003e-05	-0.0020868335658031202
1.06005e-05	-0.002090073491521061
1.06008e-05	-0.0020933134172389793
1.06010e-05	-0.00209655334295692
1.06013e-05	-0.00209979326867486
1.06015e-05	-0.0021030331943927786
1.06018e-05	-0.002106273120110719
1.06020e-05	-0.00210951304582866
1.06023e-05	-0.0021152504357857707
1.06025e-05	-0.002122208501961152
1.06028e-05	-0.002129166568136533
1.06030e-05	-0.0021361246343118674
1.06033e-05	-0.0021430827004872486
1.06035e-05	-0.00215004076666263
1.06037e-05	-0.002156998832837964
1.06040e-05	-0.0021639568990133454
1.06043e-05	-0.002170914965188727
1.06045e-05	-0.0021782476763049707
1.06048e-05	-0.0021857635012222606
1.06050e-05	-0.0021932793261395505
1.06053e-05	-0.0022007951510568404
1.06055e-05	-0.0022083109759740796
1.06058e-05	-0.0022158268008913694
1.06060e-05	-0.0022233426258086593
1.06063e-05	-0.0022308584507258985
1.06065e-05	-0.0022383742756431884
1.06068e-05	-0.0022448462295858802
1.06070e-05	-0.002250807974631919
1.06073e-05	-0.0022562694227163376
1.06075e-05	-0.002261486342533368
1.06078e-05	-0.002267293562719781
1.06080e-05	-0.002273389301801283
1.06083e-05	-0.002280696450781186
1.06085e-05	-0.002288595696028377
1.06088e-05	-0.0022964949412756217
1.06090e-05	-0.0023054688058380133
1.06093e-05	-0.0023149679080479543
1.06095e-05	-0.002324467010257959
1.06098e-05	-0.0023362700850194152
1.06100e-05	-0.0023491992637936845
1.06103e-05	-0.002362128442568041
1.06105e-05	-0.002375057621342398
1.06108e-05	-0.0023879868001166673
1.06110e-05	-0.002403452213928921
1.06113e-05	-0.0024201572538175417
1.06115e-05	-0.0024368622937060488
1.06118e-05	-0.002453567333594669
1.06120e-05	-0.0024702723734832894
1.06122e-05	-0.002488770975633348
1.06125e-05	-0.0025081462104756484
1.06128e-05	-0.0025275214453179488
1.06130e-05	-0.0025475166167515098
1.06133e-05	-0.002567814792265254
1.06135e-05	-0.00258839791340703
1.06138e-05	-0.0026091203063535115
1.06140e-05	-0.002630083073301104
1.06143e-05	-0.0026511633269468817
1.06145e-05	-0.0026721699983105586
1.06148e-05	-0.002693140705138355
1.06150e-05	-0.0027136871995535497
1.06153e-05	-0.002734026353260577
1.06155e-05	-0.0027536968543699857
1.06158e-05	-0.002773040540660071
1.06160e-05	-0.002791541510420738
1.06163e-05	-0.002809630588787372
1.06165e-05	-0.0028265344528610728
1.06168e-05	-0.0028428590241948984
1.06170e-05	-0.0028576310171959363
1.06173e-05	-0.002871644162314888
1.06175e-05	-0.002883287921458905
1.06178e-05	-0.0028937736047162147
1.06180e-05	-0.0029042592879735957
1.06183e-05	-0.0029103245416400507
1.06185e-05	-0.002914229238532642
1.06188e-05	-0.00291813393542526
1.06190e-05	-0.002922038632317878
1.06193e-05	-0.002925943329210469
1.06195e-05	-0.002928357671393143
1.06198e-05	-0.0029235822302261017
1.06200e-05	-0.0029188067890590927
1.06203e-05	-0.0029140313478920516
1.06205e-05	-0.00290925590672501
1.06207e-05	-0.0029044804655580015
1.06210e-05	-0.0028940254272178207
1.06213e-05	-0.002880794393492423
1.06215e-05	-0.0028675633597671146
1.06218e-05	-0.002854332326041717
1.06220e-05	-0.0028411012923163187
1.06222e-05	-0.0028278702585910103
1.06225e-05	-0.0028146392248656125
1.06228e-05	-0.002797384255738385
1.06230e-05	-0.0027781625228132933
1.06233e-05	-0.002758940789888332
1.06235e-05	-0.0027397190569632404
1.06238e-05	-0.0027204973240381493
1.06240e-05	-0.002701275591113188
1.06243e-05	-0.0026820538581880963
1.06245e-05	-0.0026618613053354945
1.06248e-05	-0.0026411942484721278
1.06250e-05	-0.002620527191608621
1.06253e-05	-0.0026002918278928396
1.06255e-05	-0.002580267461216168
1.06258e-05	-0.0025602430945393605
1.06260e-05	-0.0025414132995906077
1.06263e-05	-0.0025231673709803664
1.06265e-05	-0.002504921442370002
1.06268e-05	-0.0024882670596840157
1.06270e-05	-0.00247239057092401
1.06273e-05	-0.0024588257596113226
1.06275e-05	-0.0024463908182052714
1.06278e-05	-0.002433955876799304
1.06280e-05	-0.0024252211623735933
1.06283e-05	-0.0024182949939963766
1.06285e-05	-0.0024113688256192072
1.06288e-05	-0.0024093093402029575
1.06290e-05	-0.0024096285251453357
1.06292e-05	-0.002409947710087712
1.06295e-05	-0.0024102668950300907
1.06298e-05	-0.0024121197860060913
1.06300e-05	-0.0024213715962024293
1.06303e-05	-0.0024306234063988306
1.06305e-05	-0.0024398752165952315
1.06307e-05	-0.00244912702679157
1.06310e-05	-0.002462341610833364
1.06313e-05	-0.0024774930649691398
1.06315e-05	-0.002494820083666355
1.06318e-05	-0.0025132104448858748
1.06320e-05	-0.002533596754830636
1.06323e-05	-0.002554958617139913
1.06325e-05	-0.002577604220495858
1.06328e-05	-0.0026016107500893624
1.06330e-05	-0.00262661776627297
1.06333e-05	-0.002652491721778405
1.06335e-05	-0.0026791144440509815
1.06338e-05	-0.0027063801137514106
1.06340e-05	-0.0027341611898033967
1.06343e-05	-0.0027623005343927324
1.06345e-05	-0.002790629869834184
1.06348e-05	-0.0028189798518106525
1.06350e-05	-0.0028471813688362596
1.06353e-05	-0.002875067106171922
1.06355e-05	-0.0029024793478409235
1.06358e-05	-0.0029292679426746004
1.06360e-05	-0.0029552694875131904
1.06363e-05	-0.002980301588119263
1.06365e-05	-0.003003701624997602
1.06368e-05	-0.003026469435148583
1.06370e-05	-0.00304710961478588
1.06373e-05	-0.0030667098804452717
1.06375e-05	-0.0030844292234550826
1.06377e-05	-0.0031012292349631354
1.06380e-05	-0.0031170173141520214
1.06383e-05	-0.003132310794980426
1.06385e-05	-0.003146078675039932
1.06388e-05	-0.003159100892939493
1.06390e-05	-0.003172123110839054
1.06392e-05	-0.003183111455032942
1.06395e-05	-0.0031931057104117844
1.06398e-05	-0.0032030999657906268
1.06400e-05	-0.0032116572162833672
1.06403e-05	-0.0032195121072929427
1.06405e-05	-0.0032273669983025714
1.06408e-05	-0.0032352218893122
1.06410e-05	-0.0032413380568008373
1.06413e-05	-0.0032466043949219833
1.06415e-05	-0.0032518707330431293
1.06418e-05	-0.0032571370711642397
1.06420e-05	-0.0032605683073382817
1.06423e-05	-0.003263102607623234
1.06425e-05	-0.003265636907908169
1.06428e-05	-0.003268171208193121
1.06430e-05	-0.0032707055084780735
1.06433e-05	-0.0032732398087630082
1.06435e-05	-0.0032757741090479607
1.06438e-05	-0.003278308409332913
1.06440e-05	-0.0032808427096178475
1.06443e-05	-0.003282992950786416
1.06445e-05	-0.0032832904103150505
1.06448e-05	-0.003283587869843683
