Time(s)	Current(A)
6.00000e-06	-0.0035419456244171303
6.00025e-06	-0.0036162206958735084
6.00050e-06	-0.0036922440802850554
6.00075e-06	-0.0037696505131440575
6.00100e-06	-0.0038479965806132257
6.00125e-06	-0.003926816388574075
6.00150e-06	-0.004005644089952123
6.00175e-06	-0.004084014211633133
6.00200e-06	-0.004161467292490506
6.00225e-06	-0.004237570136603339
6.00250e-06	-0.004311903760654328
6.00275e-06	-0.004384008437683993
6.00300e-06	-0.004453374889021927
6.00325e-06	-0.00451948119768094
6.00350e-06	-0.004581804054460061
6.00375e-06	-0.0046398220271165296
6.00400e-06	-0.004693089158458005
6.00425e-06	-0.004741138512690502
6.00450e-06	-0.004783983774905188
6.00475e-06	-0.004824704801316923
6.00500e-06	-0.004857036595817274
6.00525e-06	-0.004889368390317735
6.00550e-06	-0.004918419297798667
6.00575e-06	-0.00493451301754931
6.00600e-06	-0.004950606737300007
6.00625e-06	-0.00496670045705065
6.00650e-06	-0.004979367032465661
6.00675e-06	-0.004978498806995473
6.00700e-06	-0.004977630581525287
6.00725e-06	-0.004976762356055102
6.00750e-06	-0.0049731687767421
6.00775e-06	-0.0049588119735931155
6.00800e-06	-0.004944455170444082
6.00825e-06	-0.004928096208602261
6.00850e-06	-0.004903830133259368
6.00875e-06	-0.004879564057916392
6.00900e-06	-0.004853739848986732
6.00925e-06	-0.004821762112285163
6.00950e-06	-0.004789784375583487
6.00975e-06	-0.0047565593354142585
6.01000e-06	-0.004718408327026852
6.01025e-06	-0.004680257318639316
6.01050e-06	-0.00464146649133752
6.01075e-06	-0.004600148830975991
6.01100e-06	-0.004558582170944166
6.01125e-06	-0.004516032137985778
6.01150e-06	-0.004473420619561888
6.01175e-06	-0.0044305662769521
6.01200e-06	-0.00438786901159518
6.01225e-06	-0.004345792090504553
6.01250e-06	-0.004304158927942063
6.01275e-06	-0.0042642782983131665
6.01300e-06	-0.004225086945685331
6.01325e-06	-0.0041886177506472505
6.01350e-06	-0.004153066603703515
6.01375e-06	-0.004121141098676231
6.01400e-06	-0.004090737268754164
6.01425e-06	-0.004066342981336832
6.01450e-06	-0.004041948693919417
6.01475e-06	-0.004019704657196304
6.01500e-06	-0.0040059525928391035
6.01525e-06	-0.003992200528481855
6.01550e-06	-0.0039810597695643405
6.01575e-06	-0.003980231823795507
6.01600e-06	-0.003979403878026672
6.01625e-06	-0.0039785759322578385
6.01650e-06	-0.003980764772971147
6.01675e-06	-0.003994867790718549
6.01700e-06	-0.004008970808465951
6.01725e-06	-0.004023073826213401
6.01750e-06	-0.004039252954568216
6.01775e-06	-0.004063631254281351
6.01800e-06	-0.004088954557843984
6.01825e-06	-0.00411861258294933
6.01850e-06	-0.00415122249643193
6.01875e-06	-0.0041866190383563675
6.01900e-06	-0.004224580426468078
6.01925e-06	-0.004264871407730686
6.01950e-06	-0.004307256169360151
6.01975e-06	-0.004351498531767849
6.02000e-06	-0.004397366436084452
6.02025e-06	-0.004444640297438271
6.02050e-06	-0.004493101366864971
6.02075e-06	-0.004542494009302034
6.02100e-06	-0.004592528931149618
6.02125e-06	-0.0046429071778614365
6.02150e-06	-0.004693329888977614
6.02175e-06	-0.004743498669699049
6.02200e-06	-0.004793117002184512
6.02225e-06	-0.00484189581917336
6.02250e-06	-0.0048895472942823434
6.02275e-06	-0.004935760318064341
6.02300e-06	-0.004980203226513585
6.02325e-06	-0.005022537022983351
6.02350e-06	-0.005062424286442568
6.02375e-06	-0.005099524787580194
6.02400e-06	-0.005133404202466904
6.02425e-06	-0.005163169169558097
6.02450e-06	-0.005187554437071587
6.02475e-06	-0.005205760397842792
6.02500e-06	-0.005217044363137299
6.02525e-06	-0.005220898874442989
6.02550e-06	-0.0052216819821079554
6.02575e-06	-0.005210335213520089
6.02600e-06	-0.005198988444932261
6.02625e-06	-0.005183635539953256
6.02650e-06	-0.005152461224192618
6.02675e-06	-0.005121286908432085
6.02700e-06	-0.005086180878626488
6.02725e-06	-0.005035547353771338
6.02750e-06	-0.004984913828916361
6.02775e-06	-0.004930905205186938
6.02800e-06	-0.004863567323413
6.02825e-06	-0.004796229441639289
6.02850e-06	-0.004725816220276716
6.02875e-06	-0.004643257578445356
6.02900e-06	-0.004560698936614276
6.02925e-06	-0.004476133039742147
6.02950e-06	-0.004383639902397429
6.02975e-06	-0.004290011800751779
6.03000e-06	-0.0041919013912979355
6.03025e-06	-0.004093123579932064
6.03050e-06	-0.003991355578650201
6.03075e-06	-0.0038879448296019643
6.03100e-06	-0.0037834557537624975
6.03125e-06	-0.0036785040446689395
6.03150e-06	-0.00357370419181811
6.03175e-06	-0.003469671329000518
6.03200e-06	-0.003367005371861711
6.03225e-06	-0.0032662357841698395
6.03250e-06	-0.00316783440484878
6.03275e-06	-0.003072345463675738
6.03300e-06	-0.0029804164991151048
6.03325e-06	-0.002892727329603763
6.03350e-06	-0.0028099573996171493
6.03375e-06	-0.0027327835287539715
6.03400e-06	-0.002661768693390626
6.03425e-06	-0.002596881182516977
6.03450e-06	-0.0025374131339991925
6.03475e-06	-0.0024828425655654797
6.03500e-06	-0.002433234731301024
6.03525e-06	-0.002388860227457279
6.03550e-06	-0.0023499896949430365
6.03575e-06	-0.002317489866240878
6.03600e-06	-0.0022921257615825127
6.03625e-06	-0.0022689120017058534
6.03650e-06	-0.0022541905857688567
6.03675e-06	-0.00224134339453716
6.03700e-06	-0.0022358980678587053
6.03725e-06	-0.0022323223556516784
6.03750e-06	-0.0022361303008286374
6.03775e-06	-0.00224179694645413
6.03800e-06	-0.002254804146777175
6.03825e-06	-0.0022690534993380545
6.03850e-06	-0.0022888974711339203
6.03875e-06	-0.0023121016147421287
6.03900e-06	-0.002338439452343909
6.03925e-06	-0.0023677649074247617
6.03950e-06	-0.0023999323197025904
6.03975e-06	-0.0024347950481444563
6.04000e-06	-0.0024721785765667455
6.04025e-06	-0.002511762142909691
6.04050e-06	-0.0025530590680515647
6.04075e-06	-0.0025956279192827746
6.04100e-06	-0.0026391723849603474
6.04125e-06	-0.0026834461773066437
6.04150e-06	-0.0027282031002450685
6.04175e-06	-0.0027731964449940806
6.04200e-06	-0.0028181623862031757
6.04225e-06	-0.0028627449337597518
6.04250e-06	-0.0029064845014417045
6.04275e-06	-0.0029489505154276295
6.04300e-06	-0.0029898021010564195
6.04325e-06	-0.003028730524894735
6.04350e-06	-0.003065426959422804
6.04375e-06	-0.003099582158502406
6.04400e-06	-0.003130879163295867
6.04425e-06	-0.0031585972014293107
6.04450e-06	-0.003182059778220955
6.04475e-06	-0.0032036159292349532
6.04500e-06	-0.003217643044192572
6.04525e-06	-0.003231670159150143
6.04550e-06	-0.003243344439701298
6.04575e-06	-0.003245726685236958
6.04600e-06	-0.0032481089307726096
6.04625e-06	-0.003247302810719951
6.04650e-06	-0.00323390489729379
6.04675e-06	-0.0032205069838676294
6.04700e-06	-0.003207109070441423
6.04725e-06	-0.003193711157015262
6.04750e-06	-0.0031767738071259775
6.04775e-06	-0.003145858181732482
6.04800e-06	-0.0031149425563390914
6.04825e-06	-0.003084026930945701
6.04850e-06	-0.0030531113055522053
6.04875e-06	-0.00301990180342968
6.04900e-06	-0.0029776331074990404
6.04925e-06	-0.002935364411568257
6.04950e-06	-0.002892041203052816
6.04975e-06	-0.0028445534142191383
6.05000e-06	-0.0027964453137182444
6.05025e-06	-0.0027458874200173467
6.05050e-06	-0.00269498773392912
6.05075e-06	-0.0026425885647598677
6.05100e-06	-0.0025895109994699497
6.05125e-06	-0.002536062884827929
6.05150e-06	-0.002482551606712363
6.05175e-06	-0.002429285336423495
6.05200e-06	-0.002376570003885436
6.05225e-06	-0.0023247075410147908
6.05250e-06	-0.002274003187064009
6.05275e-06	-0.002224783973279654
6.05300e-06	-0.002177395058303832
6.05325e-06	-0.0021324693586124415
6.05350e-06	-0.0020906255009961136
6.05375e-06	-0.0020500060368093065
6.05400e-06	-0.0020142220623554996
6.05425e-06	-0.001979469102406888
6.05450e-06	-0.0019487879219496137
6.05475e-06	-0.0019181067414922356
6.05500e-06	-0.0018884267344688925
6.05525e-06	-0.00186270065576986
6.05550e-06	-0.0018369745770707405
6.05575e-06	-0.0018124603469471695
6.05600e-06	-0.0017927320632388753
6.05625e-06	-0.0017730037795305141
6.05650e-06	-0.001754202827109448
6.05675e-06	-0.0017390641786590734
6.05700e-06	-0.0017239255302086475
6.05725e-06	-0.0017087868817582728
6.05750e-06	-0.0016946991725696437
6.05775e-06	-0.0016847619315946323
6.05800e-06	-0.0016748246906196547
6.05825e-06	-0.001664887449644677
6.05850e-06	-0.0016559818468895445
6.05875e-06	-0.0016511504868573824
6.05900e-06	-0.0016463191268252038
6.05925e-06	-0.0016414877667930417
6.05950e-06	-0.0016366564067608795
6.05975e-06	-0.001631825046728701
6.06000e-06	-0.0016269936866965388
6.06025e-06	-0.0016221623266643767
6.06050e-06	-0.001620302293891636
6.06075e-06	-0.0016197032982557293
6.06100e-06	-0.0016191043026198225
6.06125e-06	-0.0016185053069839139
6.06150e-06	-0.0016179063113480072
6.06175e-06	-0.0016173073157121005
6.06200e-06	-0.0016167083200761916
6.06225e-06	-0.0016163708219215217
6.06250e-06	-0.0016170660542234726
6.06275e-06	-0.001617761286525426
6.06300e-06	-0.0016183992429604764
6.06325e-06	-0.0016190128914048921
6.06350e-06	-0.0016196067534783637
6.06375e-06	-0.0016201104538158357
6.06400e-06	-0.0016206239135178352
6.06425e-06	-0.0016215894967945674
6.06450e-06	-0.0016238018793330224
6.06475e-06	-0.0016279558473082645
6.06500e-06	-0.0016342593295315666
6.06525e-06	-0.0016412152186470017
6.06550e-06	-0.0016507476544441889
6.06575e-06	-0.0016608680361853536
6.06600e-06	-0.0016733103893668945
6.06625e-06	-0.0016867412378396213
6.06650e-06	-0.0017040759449209392
6.06675e-06	-0.0017214106520022571
6.06700e-06	-0.0017399480107133443
6.06725e-06	-0.0017632349943945663
6.06750e-06	-0.001786521978075867
6.06775e-06	-0.0018106004714786004
6.06800e-06	-0.0018378048695444058
6.06825e-06	-0.001865650548785115
6.06850e-06	-0.001896028835977549
6.06875e-06	-0.0019270251297203891
6.06900e-06	-0.0019604621130786173
6.06925e-06	-0.0019942611056402867
6.06950e-06	-0.002029674047232925
6.06975e-06	-0.0020659564123586753
6.07000e-06	-0.002102914707096874
6.07025e-06	-0.002140447804109578
6.07050e-06	-0.0021785407467080787
6.07075e-06	-0.0022171113935038366
6.07100e-06	-0.002255959927433186
6.07125e-06	-0.002294849559731662
6.07150e-06	-0.0023335434545912028
6.07175e-06	-0.0023718048726760433
6.07200e-06	-0.0024094088681815003
6.07225e-06	-0.0024461879580932287
6.07250e-06	-0.00248202873652614
6.07275e-06	-0.0025167757783519733
6.07300e-06	-0.0025500206815966125
6.07325e-06	-0.0025813408269503937
6.07350e-06	-0.0026116179617816627
6.07375e-06	-0.0026377759413246733
6.07400e-06	-0.002663933920867772
6.07425e-06	-0.002689106690303094
6.07450e-06	-0.002710388575286276
6.07475e-06	-0.00273167046026953
6.07500e-06	-0.002752206788899321
6.07525e-06	-0.0027697986962316617
6.07550e-06	-0.0027873906035640623
6.07575e-06	-0.002804086541743718
6.07600e-06	-0.0028172440342472864
6.07625e-06	-0.0028304015267508103
6.07650e-06	-0.0028428069291228
6.07675e-06	-0.002852242106386115
6.07700e-06	-0.0028616772836493978
6.07725e-06	-0.0028711124609126807
6.07750e-06	-0.0028805476381759954
6.07775e-06	-0.002886987492468152
6.07800e-06	-0.0028921561257966976
6.07825e-06	-0.0028973247591252606
6.07850e-06	-0.0029024933924538063
6.07875e-06	-0.0029067849706105016
6.07900e-06	-0.0029076127999640156
6.07925e-06	-0.002908440629317527
6.07950e-06	-0.0029092684586710382
6.07975e-06	-0.0029100962880245526
6.08000e-06	-0.002910924117378064
6.08025e-06	-0.002911751946731578
6.08050e-06	-0.002912579776085089
6.08075e-06	-0.0029134076054386005
6.08100e-06	-0.002914235434792115
6.08125e-06	-0.0029145244689393196
6.08150e-06	-0.0029126856423649346
6.08175e-06	-0.002910846815790543
6.08200e-06	-0.002909007989216158
6.08225e-06	-0.0029071691626417727
6.08250e-06	-0.0029053303360673816
6.08275e-06	-0.002903491509492996
6.08300e-06	-0.002901652682918611
6.08325e-06	-0.0028998138563442197
6.08350e-06	-0.0028979750297698347
6.08375e-06	-0.002896413251832689
6.08400e-06	-0.002895945620439933
6.08425e-06	-0.002895477989047179
6.08450e-06	-0.0028950103576544234
6.08475e-06	-0.0028945427262616692
6.08500e-06	-0.002894075094868915
6.08525e-06	-0.0028936074634761592
6.08550e-06	-0.002895820677618965
6.08575e-06	-0.002899171647882629
6.08600e-06	-0.002902522618146304
6.08625e-06	-0.0029058735884099677
6.08650e-06	-0.0029092245586736314
6.08675e-06	-0.0029125755289373064
6.08700e-06	-0.002916852136179681
6.08725e-06	-0.0029247843560668333
6.08750e-06	-0.0029327165759540125
6.08775e-06	-0.002940648795841165
6.08800e-06	-0.002948581015728317
6.08825e-06	-0.0029565132356154963
6.08850e-06	-0.0029644454555026486
6.08875e-06	-0.002972377675389828
6.08900e-06	-0.002980981654566897
6.08925e-06	-0.002992238608733935
6.08950e-06	-0.003003495562901011
6.08975e-06	-0.0030147525170680493
6.09000e-06	-0.0030260094712350875
6.09025e-06	-0.003037266425402164
6.09050e-06	-0.003048523379569202
6.09075e-06	-0.0030597803337362403
6.09100e-06	-0.003071178923225128
6.09125e-06	-0.003083136872252547
6.09150e-06	-0.003095094821279966
6.09175e-06	-0.003106945935194634
6.09200e-06	-0.003118375125830315
6.09225e-06	-0.003129804316465996
6.09250e-06	-0.0031410220322255766
6.09275e-06	-0.003151404571507819
6.09300e-06	-0.003161787110790097
6.09325e-06	-0.0031718225026002903
6.09350e-06	-0.003180486906952796
6.09375e-06	-0.0031891513113053317
6.09400e-06	-0.003197289459032932
6.09425e-06	-0.0032033492645850968
6.09450e-06	-0.003209409070137282
6.09475e-06	-0.0032143818496163123
6.09500e-06	-0.0032150616434555835
6.09525e-06	-0.0032157414372948573
6.09550e-06	-0.003216421231134129
6.09575e-06	-0.0032171010249734
6.09600e-06	-0.003217780818812674
6.09625e-06	-0.0032184606126519455
6.09650e-06	-0.003213855339746404
6.09675e-06	-0.0032070070741145418
6.09700e-06	-0.003200158808482703
6.09725e-06	-0.0031933105428508407
6.09750e-06	-0.003186462277219002
6.09775e-06	-0.0031796140115871625
6.09800e-06	-0.0031713832851026375
6.09825e-06	-0.0031576928141519595
6.09850e-06	-0.0031440023432012815
6.09875e-06	-0.003130311872250557
6.09900e-06	-0.003116621401299879
6.09925e-06	-0.003102930930349201
6.09950e-06	-0.0030892404593984768
6.09975e-06	-0.0030755499884477988
6.10000e-06	-0.0030611421733438412
6.10025e-06	-0.003043901355219518
6.10050e-06	-0.0030266605370952537
6.10075e-06	-0.0030094197189709892
6.10100e-06	-0.002992178900846666
6.10125e-06	-0.0029749380827224017
6.10150e-06	-0.002957697264598079
6.10175e-06	-0.0029404564464738147
6.10200e-06	-0.002923332848249313
6.10225e-06	-0.0029066721858813168
6.10250e-06	-0.002890011523513377
6.10275e-06	-0.002873617360887453
6.10300e-06	-0.0028582756841157605
6.10325e-06	-0.002843250772747985
6.10350e-06	-0.0028294768611153874
6.10375e-06	-0.002816144520502782
6.10400e-06	-0.0028045560737068416
6.10425e-06	-0.002793880829557361
6.10450e-06	-0.0027868120912160057
6.10475e-06	-0.002780959607831503
6.10500e-06	-0.0027799104729511986
6.10525e-06	-0.0027803082301684195
6.10550e-06	-0.0027864201897847625
6.10575e-06	-0.0027925321494011264
6.10600e-06	-0.002800454315767761
6.10625e-06	-0.0028155255209416905
6.10650e-06	-0.002830596726115671
6.10675e-06	-0.002847668710053164
6.10700e-06	-0.002872642357722122
6.10725e-06	-0.0028976160053911645
6.10750e-06	-0.0029237779173115572
6.10775e-06	-0.002955156695484192
6.10800e-06	-0.0029891137768568395
6.10825e-06	-0.0030256073226887664
6.10850e-06	-0.0030647134683292397
6.10875e-06	-0.003106393038053412
6.10900e-06	-0.003150423904663694
6.10925e-06	-0.0031965269512616874
6.10950e-06	-0.003244423246736461
6.10975e-06	-0.0032938342363222086
6.11000e-06	-0.003344498516939745
6.11025e-06	-0.0033962381455570514
6.11050e-06	-0.0034489490240799214
6.11075e-06	-0.003502455140483744
6.11100e-06	-0.0035564690304186286
6.11125e-06	-0.003607525908649621
6.11150e-06	-0.003652274650288249
6.11175e-06	-0.0037105990028219317
6.11200e-06	-0.04713056318137221
6.11225e-06	-0.0301422532759434
6.11250e-06	-0.018603916596405482
6.11275e-06	-0.005631377244223001
6.11300e-06	0.007925804844245042
6.11325e-06	0.011791488817910195
6.11350e-06	0.0070843605251473965
6.11375e-06	-0.0026558646296045117
6.11400e-06	-0.01396889780454591
6.11425e-06	-0.01685424771361748
6.11450e-06	-0.011888809812219165
6.11475e-06	-0.0038194621504018854
6.11500e-06	0.004386236253368763
6.11525e-06	0.006597665690316844
6.11550e-06	0.00351336935568305
6.11575e-06	-0.0026797629836505937
6.11600e-06	-0.009832009982181747
6.11625e-06	-0.011689782378616714
6.11650e-06	-0.008621048084820903
6.11675e-06	-0.0036031359584633507
6.11700e-06	0.0015029071910856928
6.11725e-06	0.002855834794951941
6.11750e-06	0.0008928455633532128
6.11775e-06	-0.00301634517082649
6.11800e-06	-0.007525252217307483
6.11825e-06	-0.008716870216985861
6.11850e-06	-0.006822038077138637
6.11875e-06	-0.0037059597819903045
6.11900e-06	-0.000534444563762399
6.11925e-06	0.0002864805537048561
6.11950e-06	-0.0009690939144708045
6.11975e-06	-0.0034429972878738144
6.12000e-06	-0.006291685164139351
6.12025e-06	-0.007061591080748478
6.12050e-06	-0.005897455941309419
6.12075e-06	-0.003967725502677875
6.12100e-06	-0.002002656330010326
6.12125e-06	-0.0015092736679390706
6.12150e-06	-0.002315718704601643
6.12175e-06	-0.003884297662235605
6.12200e-06	-0.005686526794701392
6.12225e-06	-0.006185500565973705
6.12250e-06	-0.005471954699255428
6.12275e-06	-0.004277835124891692
6.12300e-06	-0.00306055170258444
6.12325e-06	-0.002764016386915913
6.12350e-06	-0.0032804520666640026
6.12375e-06	-0.004272942496397996
6.12400e-06	-0.005410326737001557
6.12425e-06	-0.005729599446501019
6.12450e-06	-0.005287172400471339
6.12475e-06	-0.0045413155557463124
6.12500e-06	-0.003778601212041187
6.12525e-06	-0.0035903951664031947
6.12550e-06	-0.003909267989257692
6.12575e-06	-0.004524271089720164
6.12600e-06	-0.00522807918635036
6.12625e-06	-0.005417617603806672
6.12650e-06	-0.0051283981923027425
6.12675e-06	-0.004647641886804299
6.12700e-06	-0.004154997191051682
6.12725e-06	-0.004021008669764294
6.12750e-06	-0.004203537602943837
6.12775e-06	-0.004570552684003994
6.12800e-06	-0.004992304075197449
6.12825e-06	-0.005091168335291023
6.12850e-06	-0.004889547671402362
6.12875e-06	-0.00456750432010931
6.12900e-06	-0.0042377046335597655
6.12925e-06	-0.004132375800427719
6.12950e-06	-0.004225231451008584
6.12975e-06	-0.004433680608534975
6.13000e-06	-0.004676569679397359
6.13025e-06	-0.004717491149337143
6.13050e-06	-0.004570623650649885
6.13075e-06	-0.004348897037016628
6.13100e-06	-0.004123016494360817
6.13125e-06	-0.004038570010040176
6.13150e-06	-0.004079206930891109
6.13175e-06	-0.00419331023471041
6.13200e-06	-0.004330168274724002
6.13225e-06	-0.004341826599746781
6.13250e-06	-0.0042373047554794445
6.13275e-06	-0.004087475987249492
6.13300e-06	-0.003936758923086335
6.13325e-06	-0.003876471814021184
6.13350e-06	-0.0038964906885802634
6.13375e-06	-0.003964603730518778
6.13400e-06	-0.004049109436335187
6.13425e-06	-0.0040570643864450565
6.13450e-06	-0.003993505102931295
6.13475e-06	-0.0039023631757306217
6.13500e-06	-0.0038113164763950718
6.13525e-06	-0.003777518886359525
6.13550e-06	-0.003794586981017015
6.13575e-06	-0.003842302118860739
6.13600e-06	-0.00390076668347439
6.13625e-06	-0.003911725798144052
6.13650e-06	-0.0038783003889841083
6.13675e-06	-0.0038279747050152134
6.13700e-06	-0.0037780490703369436
6.13725e-06	-0.0037642852331056147
6.13750e-06	-0.0037826435335134123
6.13775e-06	-0.0038204188374418354
6.13800e-06	-0.0038651082695642137
6.13825e-06	-0.0038801840914712833
6.13850e-06	-0.0038675657935251856
6.13875e-06	-0.0038444329637635577
6.13900e-06	-0.0038215850184178967
6.13925e-06	-0.0038213837600314443
6.13950e-06	-0.003841258882180712
6.13975e-06	-0.00387321177366877
6.14000e-06	-0.003909371800798504
6.14025e-06	-0.0039268206549114264
6.14050e-06	-0.003926723510782822
6.14075e-06	-0.003919804803728518
6.14100e-06	-0.003912790792928091
6.14125e-06	-0.003919649789817543
6.14150e-06	-0.0039387322752785035
6.14175e-06	-0.003964988728215983
6.14200e-06	-0.003993449689499829
6.14225e-06	-0.004009720721046991
6.14250e-06	-0.004014494717928067
6.14275e-06	-0.0040144514401132545
6.14300e-06	-0.004013765487440231
6.14325e-06	-0.004021147957614364
6.14350e-06	-0.004035526240983572
6.14375e-06	-0.004053697241177309
6.14400e-06	-0.004072585244831561
6.14425e-06	-0.004083618445754851
6.14450e-06	-0.00408805496944157
6.14475e-06	-0.004090618427302137
6.14500e-06	-0.00409400393680897
6.14525e-06	-0.004103607577424708
