Time(s)	Current(A)
5.50000e-06	0.0001336748014276014
5.50025e-06	8.94136010173812e-05
5.50050e-06	4.6282669610459e-05
5.50075e-06	4.343091682848978e-06
5.50100e-06	-3.611370512263167e-05
5.50125e-06	-7.479001417255891e-05
5.50150e-06	-0.00011138785594166636
5.50175e-06	-0.00014560927684103124
5.50200e-06	-0.00017722043753392352
5.50225e-06	-0.00020634472735412982
5.50250e-06	-0.00023363796106194433
5.50275e-06	-0.0002597507538259386
5.50300e-06	-0.0002848149700616317
5.50325e-06	-0.0003083479759641103
5.50350e-06	-0.0003307050292040159
5.50375e-06	-0.00035164309174914936
5.50400e-06	-0.00037069563787126074
5.50425e-06	-0.0003885531984176449
5.50450e-06	-0.00040482289447914434
5.50475e-06	-0.00042044678868182795
5.50500e-06	-0.0004352125588564409
5.50525e-06	-0.00044900593219123635
5.50550e-06	-0.00046150721092817537
5.50575e-06	-0.0004740084896651568
5.50600e-06	-0.0004852210890985158
5.50625e-06	-0.0004947213263579087
5.50650e-06	-0.0005042215636173339
5.50675e-06	-0.0005130171212311614
5.50700e-06	-0.0005208763196076978
5.50725e-06	-0.0005287355179842609
5.50750e-06	-0.0005352785506525364
5.50775e-06	-0.0005400726979564294
5.50800e-06	-0.0005448668452603061
5.50825e-06	-0.0005496609925641829
5.50850e-06	-0.0005544551398680758
5.50875e-06	-0.0005592492871719525
5.50900e-06	-0.0005640434344758292
5.50925e-06	-0.0005688375817797222
5.50950e-06	-0.0005736317290835988
5.50975e-06	-0.0005760702863633243
5.51000e-06	-0.0005783299351518326
5.51025e-06	-0.0005805895839403334
5.51050e-06	-0.0005828492327288342
5.51075e-06	-0.0005851088815173427
5.51100e-06	-0.0005873685303058435
5.51125e-06	-0.0005896281790943442
5.51150e-06	-0.0005918878278828527
5.51175e-06	-0.0005931636472092727
5.51200e-06	-0.0005931321805789507
5.51225e-06	-0.0005931007139486287
5.51250e-06	-0.0005930692473183067
5.51275e-06	-0.0005930377806879847
5.51300e-06	-0.0005930063140576627
5.51325e-06	-0.0005929748474273407
5.51350e-06	-0.0005929433807970187
5.51375e-06	-0.0005929119141666967
5.51400e-06	-0.0005928804475363747
5.51425e-06	-0.0005928489809060527
5.51450e-06	-0.0005928175142757307
5.51475e-06	-0.0005927860476454087
5.51500e-06	-0.0005927545810150867
5.51525e-06	-0.0005893897733578369
5.51550e-06	-0.0005857717964277069
5.51575e-06	-0.0005821538194975647
5.51600e-06	-0.0005785358425674347
5.51625e-06	-0.0005749178656372925
5.51650e-06	-0.0005712998887071626
5.51675e-06	-0.0005676819117770326
5.51700e-06	-0.0005640639348468904
5.51725e-06	-0.0005604459579167605
5.51750e-06	-0.0005568279809866304
5.51775e-06	-0.0005532100040564883
5.51800e-06	-0.0005495920271263583
5.51825e-06	-0.0005459740501962283
5.51850e-06	-0.000541799858252768
5.51875e-06	-0.0005368865828565828
5.51900e-06	-0.0005319733074603976
5.51925e-06	-0.0005270600320641956
5.51950e-06	-0.0005221467566680104
5.51975e-06	-0.0005172334812718251
5.52000e-06	-0.0005123202058756232
5.52025e-06	-0.0005076959261484945
5.52050e-06	-0.0005034556560431565
5.52075e-06	-0.0004992153859378329
5.52100e-06	-0.0004949751158325093
5.52125e-06	-0.0004907348457271713
5.52150e-06	-0.0004864945756218477
5.52175e-06	-0.0004822543055165241
5.52200e-06	-0.00047807363894537895
5.52225e-06	-0.0004739721719369869
5.52250e-06	-0.0004698707049285949
5.52275e-06	-0.00046433203004180083
5.52300e-06	-0.00045688363223216126
5.52325e-06	-0.0004482271389731423
5.52350e-06	-0.0004379653611847069
5.52375e-06	-0.00042667493949250966
5.52400e-06	-0.00041401768362687617
5.52425e-06	-0.000400107847474658
5.52450e-06	-0.0003845336165457527
5.52475e-06	-0.00036771136691629645
5.52500e-06	-0.0003480879065558971
5.52525e-06	-0.00032694582182231407
5.52550e-06	-0.0003048032063021739
5.52575e-06	-0.00028075897718939243
5.52600e-06	-0.0002554328708510395
5.52625e-06	-0.00022885819820070896
5.52650e-06	-0.0002009120483944658
5.52675e-06	-0.00017149911096570871
5.52700e-06	-0.00014071072742219718
5.52725e-06	-0.00010873858294105895
5.52750e-06	-7.578076337107326e-05
5.52775e-06	-4.203534054406838e-05
5.52800e-06	-7.687410253352279e-06
5.52825e-06	2.714794339823406e-05
5.52850e-06	6.253397288673571e-05
5.52875e-06	9.830162009165637e-05
5.52900e-06	0.00013416536001587798
5.52925e-06	0.00017015677687190364
5.52950e-06	0.00020614819372792928
5.52975e-06	0.00024169453829914488
5.53000e-06	0.0002766494828664341
5.53025e-06	0.00031091511866664285
5.53050e-06	0.00034426481963733104
5.53075e-06	0.00037669401128849543
5.53100e-06	0.0004079000550748647
5.53125e-06	0.00043780697165070597
5.53150e-06	0.0004659876431572673
5.53175e-06	0.000492503004570537
5.53200e-06	0.0005168055470130753
5.53225e-06	0.0005397434753656482
5.53250e-06	0.0005608681414567029
5.53275e-06	0.0005819928075478291
5.53300e-06	0.0006024000007230019
5.53325e-06	0.0006218538353101549
5.53350e-06	0.0006413076698972422
5.53375e-06	0.0006591737877906885
5.53400e-06	0.0006749301907224078
5.53425e-06	0.0006906865936540739
5.53450e-06	0.00070644299658574
5.53475e-06	0.0007221993995174593
5.53500e-06	0.0007379558024491254
5.53525e-06	0.0007537122053807914
5.53550e-06	0.0007694686083125109
5.53575e-06	0.0007852250112441769
5.53600e-06	0.0007987056421906119
5.53625e-06	0.000812013426874662
5.53650e-06	0.0008253212115586671
5.53675e-06	0.0008386289962426721
5.53700e-06	0.0008519367809267223
5.53725e-06	0.0008652445656107273
5.53750e-06	0.0008785523502947325
5.53775e-06	0.0008918601349787826
5.53800e-06	0.0009043220141459064
5.53825e-06	0.0009156598769616528
5.53850e-06	0.0009269977397773607
5.53875e-06	0.0009383356025930686
5.53900e-06	0.000949673465408815
5.53925e-06	0.0009610113282245229
5.53950e-06	0.0009723491910402308
5.53975e-06	0.0009836870538559772
5.54000e-06	0.0009938889192767262
5.54025e-06	0.001002581302111578
5.54050e-06	0.0010112736849464592
5.54075e-06	0.001019966067781311
5.54100e-06	0.0010286584506161627
5.54125e-06	0.0010373508334510439
5.54150e-06	0.0010460432162858956
5.54175e-06	0.0010547355991207474
5.54200e-06	0.0010617231401992514
5.54225e-06	0.0010664453337036245
5.54250e-06	0.0010711675272080138
5.54275e-06	0.001072959724424256
5.54300e-06	0.0010708586218908165
5.54325e-06	0.0010687575193573694
5.54350e-06	0.0010641863033950393
5.54375e-06	0.0010563328675769334
5.54400e-06	0.0010465590665173475
5.54425e-06	0.0010342335361112598
5.54450e-06	0.0010195613508738061
5.54475e-06	0.0010017709942227973
5.54500e-06	0.0009816460553216386
5.54525e-06	0.0009584189867260504
5.54550e-06	0.0009331668238720858
5.54575e-06	0.0009052237705892885
5.54600e-06	0.000875494762634916
5.54625e-06	0.0008433926264605903
5.54650e-06	0.0008094573575672335
5.54675e-06	0.0007730862715414997
5.54700e-06	0.0007347940579271166
5.54725e-06	0.0006939491019798665
5.54750e-06	0.0006531041460324779
5.54775e-06	0.0006107519837311219
5.54800e-06	0.000566397086428236
5.54825e-06	0.0005220421891252
5.54850e-06	0.0004767518209170455
5.54875e-06	0.0004302184242942586
5.54900e-06	0.000383685027671314
5.54925e-06	0.00033715163104852707
5.54950e-06	0.0002906182344257402
5.54975e-06	0.0002440848378027956
5.55000e-06	0.00019804914982248417
5.55025e-06	0.00015309554695878622
5.55050e-06	0.00010919186995365911
5.55075e-06	6.65338167349876e-05
5.55100e-06	2.5385827509036143e-05
5.55125e-06	-1.3951542909728044e-05
5.55150e-06	-5.11755046785831e-05
5.55175e-06	-8.598330093201727e-05
5.55200e-06	-0.00011806142742843479
5.55225e-06	-0.0001470510564642266
5.55250e-06	-0.00017256933164373306
5.55275e-06	-0.00019434335862893268
5.55300e-06	-0.00021226883900379403
5.55325e-06	-0.00022631468952752292
5.55350e-06	-0.00023645385408077805
5.55375e-06	-0.00024265933475202568
5.55400e-06	-0.0002448973869507453
5.55425e-06	-0.0002431058735336229
5.55450e-06	-0.0002372076612767839
5.55475e-06	-0.0002271944915754416
5.55500e-06	-0.00021316370655933534
5.55525e-06	-0.0001952585174421309
5.55550e-06	-0.00017362465121188717
5.55575e-06	-0.00014840784538505152
5.55600e-06	-0.00011974964020279133
5.55625e-06	-8.777377388355318e-05
5.55650e-06	-5.259457787662268e-05
5.55675e-06	-1.4369520832308641e-05
5.55700e-06	2.6677782427838417e-05
5.55725e-06	7.029499444227804e-05
5.55750e-06	0.00011622822614856395
5.55775e-06	0.00016422359417617486
5.55800e-06	0.00021402986280522654
5.55825e-06	0.00026566457101207284
5.55850e-06	0.0003184630303766398
5.55875e-06	0.0003721402837581427
5.55900e-06	0.00042698525483933096
5.55925e-06	0.00048183022592033337
5.55950e-06	0.0005366751970015216
5.55975e-06	0.0005908346432600485
5.56000e-06	0.000644942023492663
5.56025e-06	0.0006990494037254608
5.56050e-06	0.0007513782391111307
5.56075e-06	0.0008013437922520192
5.56100e-06	0.0008513093453930772
5.56125e-06	0.0008988490803963931
5.56150e-06	0.000943165453929031
5.56175e-06	0.0009848371073493856
5.56200e-06	0.0010229945282807696
5.56225e-06	0.0010585570816114321
5.56250e-06	0.0010906716451213627
5.56275e-06	0.0011207434429130999
5.56300e-06	0.0011481008689194468
5.56325e-06	0.001172625720784567
5.56350e-06	0.001193386724812788
5.56375e-06	0.0012141477288410793
5.56400e-06	0.0012313145363241416
5.56425e-06	0.0012437054727385422
5.56450e-06	0.001256096409152985
5.56475e-06	0.001266785924671279
5.56500e-06	-0.0002524503683162696
5.56525e-06	-0.00832299402960655
5.56550e-06	-0.012540325907415587
5.56575e-06	-0.011221212851507501
5.56600e-06	-0.008657032792086223
5.56625e-06	-0.00222513218649233
5.56650e-06	0.0022147145786511483
5.56675e-06	0.0022239837426412195
5.56700e-06	0.0014293720896636874
5.56725e-06	-0.0035275993582336114
5.56750e-06	-0.007013670547341081
5.56775e-06	-0.006051279643296685
5.56800e-06	-0.004526368070908403
5.56825e-06	-0.00221892398686564
5.56850e-06	0.0015533044336764916
5.56875e-06	0.0029298721496811503
5.56900e-06	0.0022360099585320994
5.56925e-06	1.999320053531036e-05
5.56950e-06	-0.0023278742321381474
5.56975e-06	-0.002724592510234993
5.57000e-06	-0.0017437430343409132
5.57025e-06	8.371012146599584e-05
5.57050e-06	0.0019793749352702964
5.57075e-06	0.0026117298902460025
5.57100e-06	0.0021527003183919834
5.57125e-06	0.0007431568159775209
5.57150e-06	-0.0007461465695910675
5.57175e-06	-0.0010106186049440484
5.57200e-06	-0.00040977536162120534
5.57225e-06	0.0007234923413095816
5.57250e-06	0.001901143950900545
5.57275e-06	0.0022887233032352705
5.57300e-06	0.001993769137180406
5.57325e-06	0.0011044687773662718
5.57350e-06	0.00016619102435737267
5.57375e-06	-3.992493525493996e-06
5.57400e-06	0.000368577266611126
5.57425e-06	0.0010752649701042606
5.57450e-06	0.001810279723148869
5.57475e-06	0.0020508802923589445
5.57500e-06	0.0018644155059537087
5.57525e-06	0.0013061111799513771
5.57550e-06	0.0007175567304188447
5.57575e-06	0.0006105001209144495
5.57600e-06	0.0008437093364464373
5.57625e-06	0.001286431577431928
5.57650e-06	0.0017470727270327902
5.57675e-06	0.0018981671231944569
5.57700e-06	0.0017818948703455656
5.57725e-06	0.0014328406940995247
5.57750e-06	0.0010649562464998138
5.57775e-06	0.000998757470151604
5.57800e-06	0.0011457244879462852
5.57825e-06	0.0014239101256176396
5.57850e-06	0.0017132664648816251
5.57875e-06	0.0018086511827496384
5.57900e-06	0.0017364760250755988
5.57925e-06	0.0015183932359689376
5.57950e-06	0.0012884039842159067
5.57975e-06	0.0012472455823171343
5.58000e-06	0.0013394300731649933
5.58025e-06	0.0015135914512263188
5.58050e-06	0.001694503415921684
5.58075e-06	0.0017536461898584657
5.58100e-06	0.0017075506270159196
5.58125e-06	0.0015697647162176316
5.58150e-06	0.0014242073345050155
5.58175e-06	0.0013965917361694077
5.58200e-06	0.0014521196022275447
5.58225e-06	0.0015585059246124718
5.58250e-06	0.0016684182554561257
5.58275e-06	0.001701189460432016
5.58300e-06	0.001667164551422966
5.58325e-06	0.0015748855603216862
5.58350e-06	0.0014769723711991248
5.58375e-06	0.0014522184215061853
5.58400e-06	0.0014788706814265107
5.58425e-06	0.001536751923331587
5.58450e-06	0.001596262221697363
5.58475e-06	0.0016069240750777318
5.58500e-06	0.0015752718565638305
5.58525e-06	0.0015067102793862657
5.58550e-06	0.0014342524679895434
5.58575e-06	0.0014073028871214276
5.58600e-06	0.0014122821988004786
5.58625e-06	0.0014365995767258708
5.58650e-06	0.0014617629284044114
5.58675e-06	0.0014562048920631855
5.58700e-06	0.001424071630889512
5.58725e-06	0.001368801289799087
5.58750e-06	0.001311124797300971
5.58775e-06	0.001282038098806308
5.58800e-06	0.0012730835041002285
5.58825e-06	0.0012764228779413294
5.58850e-06	0.0012805226238098144
5.58875e-06	0.0012656602279178236
5.58900e-06	0.0012342594494238579
5.58925e-06	0.0011875338899096837
5.58950e-06	0.0011428490199786058
5.58975e-06	0.001114890717448472
5.59000e-06	0.0011002454247093338
5.59025e-06	0.0010947871759301561
5.59050e-06	0.0010881366907786324
5.59075e-06	0.001071529367660797
5.59100e-06	0.0010453490759990104
5.59125e-06	0.0010106257615423687
5.59150e-06	0.0009773355528049095
5.59175e-06	0.0009557791127307975
5.59200e-06	0.0009435727575839157
5.59225e-06	0.0009385202162012878
5.59250e-06	0.0009329356784691227
5.59275e-06	0.0009228472564717018
5.59300e-06	0.0009080217516934598
5.59325e-06	0.0008892907865053781
5.59350e-06	0.0008717354805209984
5.59375e-06	0.0008629583572528742
5.59400e-06	0.000861022784642538
5.59425e-06	0.0008646986566368969
5.59450e-06	0.0008681782880826555
5.59475e-06	0.000869930919722208
5.59500e-06	0.0008694240775311312
5.59525e-06	0.0008672744686135968
5.59550e-06	0.0008658925679173018
5.59575e-06	0.000870962886787156
5.59600e-06	0.0008817554311315962
5.59625e-06	0.0008929867248109543
5.59650e-06	0.0009072679064472448
5.59675e-06	0.00091987211405008
5.59700e-06	0.0009307668710470842
5.59725e-06	0.000941859320865685
5.59750e-06	0.0009544140730404499
5.59775e-06	0.0009676966129140884
5.59800e-06	0.0009863624826343812
5.59825e-06	0.0010050283523546741
5.59850e-06	0.0010237541137755658
5.59875e-06	0.0010425167246282715
5.59900e-06	0.0010610587388014826
5.59925e-06	0.001077969034424584
5.59950e-06	0.0010948793300476283
5.59975e-06	0.001112024712498848
5.60000e-06	0.0011309089948252377
5.60025e-06	0.0011497932771515635
5.60050e-06	0.0011686775594778893
5.60075e-06	0.0011870317483133727
5.60100e-06	0.001201464919913476
5.60125e-06	0.0012158980915135795
5.60150e-06	0.0012303312631137316
5.60175e-06	0.0012444330345762291
5.60200e-06	0.0012560834919336354
5.60225e-06	0.0012677339492910024
5.60250e-06	0.0012786443921282734
5.60275e-06	0.0012840810652678242
5.60300e-06	0.0012895177384073568
5.60325e-06	0.0012942836948243413
5.60350e-06	0.001294088466329637
5.60375e-06	0.0012938932378349331
5.60400e-06	0.0012931130703049396
5.60425e-06	0.0012880062017721254
5.60450e-06	0.0012828993332393288
5.60475e-06	0.0012770065227764177
5.60500e-06	0.0012653002248696416
5.60525e-06	0.001253593926962905
5.60550e-06	0.0012413447909168712
5.60575e-06	0.001225080367499268
5.60600e-06	0.0012088159440817195
5.60625e-06	0.0011920164603302782
5.60650e-06	0.0011712592203974629
5.60675e-06	0.0011505019804646476
5.60700e-06	0.0011292589303898942
5.60725e-06	0.0011044224199700486
5.60750e-06	0.001079585909550203
5.60775e-06	0.0010544200222387169
5.60800e-06	0.0010268177864521
5.60825e-06	0.0009992155506654832
5.60850e-06	0.0009716133148787729
5.60875e-06	0.000944011079092156
5.60900e-06	0.0009162740141461835
5.60925e-06	0.0008875396393547024
5.60950e-06	0.0008588052645633187
5.60975e-06	0.0008300708897719349
5.61000e-06	0.0008013365149804538
5.61025e-06	0.0007728269580496146
5.61050e-06	0.0007459803430727996
5.61075e-06	0.0007191337280960757
5.61100e-06	0.0006925569782454515
5.61125e-06	0.0006679763778067287
5.61150e-06	0.0006437435326179099
5.61175e-06	0.0006220829776966553
5.61200e-06	0.0006007837360387421
5.61225e-06	0.0005821570711183425
5.61250e-06	0.0005635304061979429
5.61275e-06	0.0005449982533987641
5.61300e-06	0.0005271651917272586
5.61325e-06	0.0005093321300557533
5.61350e-06	0.0004916943915862889
5.61375e-06	0.00047550142777378864
5.61400e-06	0.0004593084639612884
5.61425e-06	0.00044321733602359023
5.61450e-06	0.0004278794718537393
5.61475e-06	0.00041254160768383635
5.61500e-06	0.0003972114364013702
5.61525e-06	0.00038193816818321796
5.61550e-06	0.00036666489996501397
5.61575e-06	0.00035139163174686174
5.61600e-06	0.00033618824506609807
5.61625e-06	0.00032150176100160713
5.61650e-06	0.00030681527693716596
5.61675e-06	0.0002921287928727248
5.61700e-06	0.00027744047786984087
5.61725e-06	0.0002627386197069538
5.61750e-06	0.0002480367615440668
5.61775e-06	0.00023333490338112988
5.61800e-06	0.0002190329795905459
5.61825e-06	0.00020497712252156062
5.61850e-06	0.00019092126545252773
5.61875e-06	0.00017688889801963347
5.61900e-06	0.000163045993004491
5.61925e-06	0.00014934560857481045
5.61950e-06	0.00013587774980949928
5.61975e-06	0.00012273814639212493
5.62000e-06	0.00010999580458593192
5.62025e-06	9.767681337946989e-05
5.62050e-06	8.573433758748457e-05
5.62075e-06	7.4121777391059e-05
5.62100e-06	6.287731841007297e-05
5.62125e-06	5.207410386445675e-05
5.62150e-06	4.1791330405892736e-05
5.62175e-06	3.2111782391239894e-05
5.62200e-06	2.313686596089555e-05
5.62225e-06	1.5272333886081366e-05
5.62250e-06	9.3857529071772e-06
5.62275e-06	6.21803356265303e-06
5.62300e-06	5.934842297449042e-06
5.62325e-06	8.433824809971203e-06
5.62350e-06	1.3616377832374975e-05
5.62375e-06	2.1386142122470823e-05
5.62400e-06	3.165842757624481e-05
5.62425e-06	4.4539176247702124e-05
5.62450e-06	6.042358495346544e-05
5.62475e-06	7.962747250880444e-05
5.62500e-06	0.00010210630505413827
5.62525e-06	0.00012764766293204703
5.62550e-06	0.00015604150304121206
5.62575e-06	0.00018707919031037801
5.62600e-06	0.0002205594051856934
5.62625e-06	0.00025640026300396274
5.62650e-06	0.000294701062876305
5.62675e-06	0.0003355113069502315
5.62700e-06	0.00037865491168638814
5.62725e-06	0.00042394138728403405
5.62750e-06	0.00047149073071928887
5.62775e-06	0.0005193984782507268
5.62800e-06	0.0005699572838716455
5.62825e-06	0.0006205160894927355
5.62850e-06	0.000671358037888989
5.62875e-06	0.0007242943483549341
5.62900e-06	0.0007772306588210585
5.62925e-06	0.0008301669692870035
5.62950e-06	0.0008831032797529487
5.62975e-06	0.0009346603113419749
5.63000e-06	0.000985368717118978
5.63025e-06	0.0010360771228959814
5.63050e-06	0.0010867855286731565
5.63075e-06	0.0011367787106251741
5.63100e-06	0.0011814814957147861
5.63125e-06	0.0012261842808045495
5.63150e-06	0.0012699182923879692
5.63175e-06	0.001306486440449726
5.63200e-06	0.0013430545885113592
5.63225e-06	0.0013787845544082856
5.63250e-06	0.001408314620163435
5.63275e-06	0.0014378446859184845
5.63300e-06	0.001466775352296858
5.63325e-06	0.0014912723568332319
5.63350e-06	0.0015157693613695228
5.63375e-06	0.0015390554158774647
5.63400e-06	0.0015533842656533423
5.63425e-06	0.0015677131154291713
5.63450e-06	0.0015820419652050005
5.63475e-06	0.001596370814980878
5.63500e-06	0.001610699664756707
5.63525e-06	0.0016250285145325363
5.63550e-06	0.0016393573643084139
5.63575e-06	0.001653686214084243
5.63600e-06	0.0016617477897631831
5.63625e-06	0.0016659533138080607
5.63650e-06	0.0016701588378529382
5.63675e-06	0.0016743643618978299
5.63700e-06	0.0016785698859427074
5.63725e-06	0.001682775409987585
5.63750e-06	0.0016869809340324766
5.63775e-06	0.0016911864580773542
5.63800e-06	0.001694689379957391
5.63825e-06	0.0016929952653890524
5.63850e-06	0.0016913011508207195
5.63875e-06	0.0016896070362523868
5.63900e-06	0.001687912921684048
5.63925e-06	0.0016862188071157154
5.63950e-06	0.0016845246925473825
5.63975e-06	0.001682830577979044
5.64000e-06	0.001681136463410711
5.64025e-06	0.00167931235212013
5.64050e-06	0.0016765266757542048
5.64075e-06	0.0016737409993882795
5.64100e-06	0.0016709553230223448
5.64125e-06	0.0016681696466564198
5.64150e-06	0.0016653839702904945
5.64175e-06	0.0016625982939245598
5.64200e-06	0.0016598126175586345
5.64225e-06	0.0016570269411927093
5.64250e-06	0.001655030287255862
5.64275e-06	0.001658869906713583
5.64300e-06	0.0016627095261713043
5.64325e-06	0.0016665491456290384
5.64350e-06	0.0016703887650867597
5.64375e-06	0.001674228384544481
5.64400e-06	0.001678068004002215
5.64425e-06	0.0016819076234599363
5.64450e-06	0.0016857472429176704
5.64475e-06	0.0016895868623753917
5.64500e-06	0.0016934264818331127
5.64525e-06	0.001697266101290847
5.64550e-06	0.001701105720748568
