Time(s)	Current(A)
5.50000e-06	-0.006128798784144027
5.50025e-06	-0.006125078584960715
5.50050e-06	-0.006120612117113288
5.50075e-06	-0.006116145649265847
5.50100e-06	-0.006105506682884303
5.50125e-06	-0.006093869031212337
5.50150e-06	-0.006082231379540332
5.50175e-06	-0.0060646293841549225
5.50200e-06	-0.00604606238208696
5.50225e-06	-0.006027495380018933
5.50250e-06	-0.005999866784918911
5.50275e-06	-0.00597077206072734
5.50300e-06	-0.005941677336535671
5.50325e-06	-0.0059125826123441
5.50350e-06	-0.00587972530152964
5.50375e-06	-0.005840200281903832
5.50400e-06	-0.005800675262278025
5.50425e-06	-0.005761150242652083
5.50450e-06	-0.0057216252230262755
5.50475e-06	-0.005675677331224374
5.50500e-06	-0.005628690244689714
5.50525e-06	-0.005581703158155214
5.50550e-06	-0.005532015403106178
5.50575e-06	-0.0054818906908176285
5.50600e-06	-0.005430665750706092
5.50625e-06	-0.005378582620910502
5.50650e-06	-0.0053258651796199005
5.50675e-06	-0.00527280078414759
5.50700e-06	-0.005219701191583968
5.50725e-06	-0.005166877723067554
5.50750e-06	-0.005114643043585003
5.50775e-06	-0.005063289636129781
5.50800e-06	-0.005013029720535775
5.50825e-06	-0.004964028194886459
5.50850e-06	-0.004916524477660562
5.50875e-06	-0.004870838293623778
5.50900e-06	-0.004827303869594268
5.50925e-06	-0.004786256817660656
5.50950e-06	-0.004748032077988189
5.50975e-06	-0.004712847424057097
5.51000e-06	-0.004680415508774469
5.51025e-06	-0.004650055284456495
5.51050e-06	-0.004622219330222948
5.51075e-06	-0.004594747409747491
5.51100e-06	-0.004570734493320982
5.51125e-06	-0.004547281229755084
5.51150e-06	-0.004527839689424926
5.51175e-06	-0.004509047229683691
5.51200e-06	-0.004494549933776517
5.51225e-06	-0.004480747578000286
5.51250e-06	-0.004466945222224056
5.51275e-06	-0.0044589546224026635
5.51300e-06	-0.004451904341181445
5.51325e-06	-0.004444854059960227
5.51350e-06	-0.0044378037787389845
5.51375e-06	-0.004430753497517766
5.51400e-06	-0.004426378908486152
5.51425e-06	-0.00442674593424624
5.51450e-06	-0.0044271129600063274
5.51475e-06	-0.0044274799857664145
5.51500e-06	-0.004427847011526502
5.51525e-06	-0.004428214037286589
5.51550e-06	-0.004432973885232831
5.51575e-06	-0.004438444474036141
5.51600e-06	-0.004443915062839432
5.51625e-06	-0.004449385651642742
5.51650e-06	-0.004454856240446033
5.51675e-06	-0.004460326829249324
5.51700e-06	-0.004467660457139578
5.51725e-06	-0.00447529551721649
5.51750e-06	-0.004482930577293402
5.51775e-06	-0.004490565637370341
5.51800e-06	-0.004498200697447253
5.51825e-06	-0.004505835757524165
5.51850e-06	-0.004513052303495907
5.51875e-06	-0.004520201135578656
5.51900e-06	-0.004527349967661404
5.51925e-06	-0.004532133259822764
5.51950e-06	-0.004536533817195483
5.51975e-06	-0.004540934374568202
5.52000e-06	-0.004545334931940936
5.52025e-06	-0.004549735489313655
5.52050e-06	-0.0045541360466863886
5.52075e-06	-0.004558536604059108
5.52100e-06	-0.004562937161431827
5.52125e-06	-0.004563511721640506
5.52150e-06	-0.004563467250987568
5.52175e-06	-0.00456342278033463
5.52200e-06	-0.004563378309681692
5.52225e-06	-0.004563333839028754
5.52250e-06	-0.004563289368375816
5.52275e-06	-0.004563244897722878
5.52300e-06	-0.00456320042706994
5.52325e-06	-0.004559884438670816
5.52350e-06	-0.004556039131936558
5.52375e-06	-0.004552193825202313
5.52400e-06	-0.004548348518468068
5.52425e-06	-0.00454450321173381
5.52450e-06	-0.004540657904999565
5.52475e-06	-0.004536812598265307
5.52500e-06	-0.004532139123052445
5.52525e-06	-0.004525998044083604
5.52550e-06	-0.004519856965114742
5.52575e-06	-0.0045137158861459
5.52600e-06	-0.004507574807177059
5.52625e-06	-0.004501433728208196
5.52650e-06	-0.004495292649239355
5.52675e-06	-0.004489151570270513
5.52700e-06	-0.004482532670441031
5.52725e-06	-0.0044758364611295455
5.52750e-06	-0.00446914025181806
5.52775e-06	-0.0044624440425065515
5.52800e-06	-0.004455747833195066
5.52825e-06	-0.004449621497806771
5.52850e-06	-0.004443587365713559
5.52875e-06	-0.004437553233620368
5.52900e-06	-0.0044315191015271566
5.52925e-06	-0.004425484969433966
5.52950e-06	-0.00442035715251529
5.52975e-06	-0.004415375973724942
5.53000e-06	-0.004411476585424629
5.53025e-06	-0.004407752226448742
5.53050e-06	-0.004405664180802043
5.53075e-06	-0.004403840884031589
5.53100e-06	-0.004404027056183597
5.53125e-06	-0.004404538352277063
5.53150e-06	-0.004405049648370527
5.53175e-06	-0.004407977971974804
5.53200e-06	-0.004411297360851174
5.53225e-06	-0.004414616749727532
5.53250e-06	-0.004420188819907473
5.53275e-06	-0.00442612536480811
5.53300e-06	-0.004432061909708728
5.53325e-06	-0.004436904366696585
5.53350e-06	-0.00444586426699224
5.53375e-06	-0.055036122587756725
5.53400e-06	-0.03436135393542746
5.53425e-06	-0.022163891893100637
5.53450e-06	-0.010849538722689407
5.53475e-06	0.002645076379936294
5.53500e-06	0.01044092814679981
5.53525e-06	0.008211414944590122
5.53550e-06	-6.1134148899568905e-06
5.53575e-06	-0.010838056657256772
5.53600e-06	-0.01719820966219392
5.53625e-06	-0.014464171390650307
5.53650e-06	-0.007099083207902177
5.53675e-06	0.001107752727129748
5.53700e-06	0.00574613333010287
5.53725e-06	0.004194051498726695
5.53750e-06	-0.0010556067881388421
5.53775e-06	-0.007910803825361756
5.53800e-06	-0.011945356890210267
5.53825e-06	-0.010271536715104713
5.53850e-06	-0.005689738290202044
5.53875e-06	-0.0005762406214483342
5.53900e-06	0.0023050318212264028
5.53925e-06	0.0013110949426562001
5.53950e-06	-0.0019967081036002393
5.53975e-06	-0.006308043706266887
5.54000e-06	-0.008850540872266775
5.54025e-06	-0.007815676752244123
5.54050e-06	-0.004957960537721014
5.54075e-06	-0.0017660848805941096
5.54100e-06	2.859520196771296e-05
5.54125e-06	-0.0006029846014871884
5.54150e-06	-0.0026826945115725536
5.54175e-06	-0.0053897155953620945
5.54200e-06	-0.006987525376538128
5.54225e-06	-0.006343484560223666
5.54250e-06	-0.004556832601390712
5.54275e-06	-0.0025602081789005728
5.54300e-06	-0.001438160987302154
5.54325e-06	-0.00183524700780024
5.54350e-06	-0.0031387168916645466
5.54375e-06	-0.004834411676689695
5.54400e-06	-0.005834649359736121
5.54425e-06	-0.005430102011938431
5.54450e-06	-0.004309488299052304
5.54475e-06	-0.0030571090872403323
5.54500e-06	-0.002352364526501439
5.54525e-06	-0.0025989940412289494
5.54550e-06	-0.003413160880120517
5.54575e-06	-0.004472817202703331
5.54600e-06	-0.005096707234840659
5.54625e-06	-0.004840626358460792
5.54650e-06	-0.004136104638521612
5.54675e-06	-0.003349229153903661
5.54700e-06	-0.002905620019207182
5.54725e-06	-0.0030581928420593
5.54750e-06	-0.0035665256399565596
5.54775e-06	-0.004228921097465268
5.54800e-06	-0.004618703106475159
5.54825e-06	-0.004457715987378226
5.54850e-06	-0.0040163634110830775
5.54875e-06	-0.003524032366386308
5.54900e-06	-0.0032473785493481533
5.54925e-06	-0.0033448563790056066
5.54950e-06	-0.003665893908071944
5.54975e-06	-0.004084221845710986
5.55000e-06	-0.004332747265503771
5.55025e-06	-0.0042374500283520475
5.55050e-06	-0.00396781054709824
5.55075e-06	-0.0036674852351031703
5.55100e-06	-0.003503428704128488
5.55125e-06	-0.003574806020750622
5.55150e-06	-0.0037872086481512074
5.55175e-06	-0.0040614587359955375
5.55200e-06	-0.004230177727747428
5.55225e-06	-0.0041843007358316545
5.55250e-06	-0.004029930275735745
5.55275e-06	-0.003856984607504298
5.55300e-06	-0.0037699667208524303
5.55325e-06	-0.003830908404032772
5.55350e-06	-0.00398058720411807
5.55375e-06	-0.004169325552565988
5.55400e-06	-0.004292204534958173
5.55425e-06	-0.004280840802747583
5.55450e-06	-0.004201631414266884
5.55475e-06	-0.00411082935892639
5.55500e-06	-0.004073818727409147
5.55525e-06	-0.004129374344255624
5.55550e-06	-0.004240317202196491
5.55575e-06	-0.0043754512709193675
5.55600e-06	-0.004468980880145385
5.55625e-06	-0.004478000999285066
5.55650e-06	-0.00444403335979562
5.55675e-06	-0.004402241561744076
5.55700e-06	-0.0043935054684159135
5.55725e-06	-0.004442034054342584
5.55750e-06	-0.0045244586611544665
5.55775e-06	-0.004621160086986334
5.55800e-06	-0.004690849245048826
5.55825e-06	-0.004706578238112887
5.55850e-06	-0.004694283949184283
5.55875e-06	-0.004675918750590676
5.55900e-06	-0.004677013294828465
5.55925e-06	-0.0047126535869385
5.55950e-06	-0.004768123755852712
5.55975e-06	-0.004831149770334268
5.56000e-06	-0.004876156537225519
5.56025e-06	-0.0048867399925995895
5.56050e-06	-0.00487946742087054
5.56075e-06	-0.004868175754876874
5.56100e-06	-0.0048688683093796314
5.56125e-06	-0.004891004975710265
5.56150e-06	-0.004925377735772648
5.56175e-06	-0.00496430843044471
5.56200e-06	-0.004991788711949676
5.56225e-06	-0.004997555765496779
5.56250e-06	-0.004992093150738923
5.56275e-06	-0.004983920096654741
5.56300e-06	-0.004982995282125998
5.56325e-06	-0.00499551704544544
5.56350e-06	-0.005013183906092937
5.56375e-06	-0.0050305737164266446
5.56400e-06	-0.005047963526760294
5.56425e-06	-0.005056049500334983
5.56450e-06	-0.005052426262205223
5.56475e-06	-0.005048996045942486
5.56500e-06	-0.005045565829679748
5.56525e-06	-0.005047782833737033
5.56550e-06	-0.005057070143968537
5.56575e-06	-0.005066193224689041
5.56600e-06	-0.005075316305409576
5.56625e-06	-0.005078635294788085
5.56650e-06	-0.005074696961795108
5.56675e-06	-0.0050709393856473795
5.56700e-06	-0.005067181809499665
5.56725e-06	-0.005067024010486484
5.56750e-06	-0.0050714588597228615
5.56775e-06	-0.005075898319215625
5.56800e-06	-0.005080337778708402
5.56825e-06	-0.00508124187439615
5.56850e-06	-0.005077850921012363
5.56875e-06	-0.005074730059064816
5.56900e-06	-0.0050716091971172795
5.56925e-06	-0.005070881727064008
5.56950e-06	-0.005073298858096918
5.56975e-06	-0.0050758351599084536
5.57000e-06	-0.005078371461719989
5.57025e-06	-0.005078554561733758
5.57050e-06	-0.005075601717094996
5.57075e-06	-0.0050724754224324405
5.57100e-06	-0.005069349127769875
5.57125e-06	-0.00506747882479961
5.57150e-06	-0.005067060443813062
5.57175e-06	-0.005066451824510549
5.57200e-06	-0.005065843205208038
5.57225e-06	-0.005063578535578347
5.57250e-06	-0.005059179892034881
5.57275e-06	-0.005054752151684516
5.57300e-06	-0.005050324411334135
5.57325e-06	-0.00504589667098377
5.57350e-06	-0.005041432493432138
5.57375e-06	-0.005036921865372616
5.57400e-06	-0.00503241123731311
5.57425e-06	-0.005027900609253603
5.57450e-06	-0.005022611146252184
5.57475e-06	-0.005016328816692858
5.57500e-06	-0.005010046487133531
5.57525e-06	-0.0050037641575741846
5.57550e-06	-0.004997481828014858
5.57575e-06	-0.004990940221157081
5.57600e-06	-0.004984068085011228
5.57625e-06	-0.004977195948865397
5.57650e-06	-0.004970323812719544
5.57675e-06	-0.0049634516765737135
5.57700e-06	-0.004956753743002481
5.57725e-06	-0.004950277884612128
5.57750e-06	-0.004943802026221796
5.57775e-06	-0.004937326167831465
5.57800e-06	-0.004930850309441112
5.57825e-06	-0.004924607649138894
5.57850e-06	-0.004918662272087064
5.57875e-06	-0.004912716895035214
5.57900e-06	-0.004906771517983383
5.57925e-06	-0.0049008261409315525
5.57950e-06	-0.0048957454173011086
5.57975e-06	-0.004891766962482781
5.58000e-06	-0.004887788507664453
5.58025e-06	-0.0048850979782654805
5.58050e-06	-0.0048840493090464634
5.58075e-06	-0.004883000639827443
5.58100e-06	-0.004883779903538745
5.58125e-06	-0.004886889434394957
5.58150e-06	-0.00488999896525118
5.58175e-06	-0.004895874264441638
5.58200e-06	-0.0049052753927107985
5.58225e-06	-0.004914676520979992
5.58250e-06	-0.004924077649249153
5.58275e-06	-0.004933478777518314
5.58300e-06	-0.004942879905787508
5.58325e-06	-0.004952281034056669
5.58350e-06	-0.004969308582260639
5.58375e-06	-0.0049868264016882215
5.58400e-06	-0.005004344221115744
5.58425e-06	-0.005021862040543266
5.58450e-06	-0.005039379859970847
5.58475e-06	-0.00505689767939837
5.58500e-06	-0.005076790771097465
5.58525e-06	-0.005099711883596532
5.58550e-06	-0.005122632996095599
5.58575e-06	-0.005145554108594743
5.58600e-06	-0.0051684752210938096
5.58625e-06	-0.0051913963335928764
5.58650e-06	-0.005214317446092021
5.58675e-06	-0.005237424897151681
5.58700e-06	-0.00526076989446828
5.58725e-06	-0.005284114891784958
5.58750e-06	-0.005307459889101557
5.58775e-06	-0.005330804886418156
5.58800e-06	-0.0053541498837348335
5.58825e-06	-0.005377494881051432
5.58850e-06	-0.005399390510217824
5.58875e-06	-0.005419438470399923
5.58900e-06	-0.005439486430581954
5.58925e-06	-0.005457847020819746
5.58950e-06	-0.0054740565350105
5.58975e-06	-0.005490266049201253
5.59000e-06	-0.00550405965412567
5.59025e-06	-0.005514773433803617
5.59050e-06	-0.005525487213481565
5.59075e-06	-0.005531864751007105
5.59100e-06	-0.005532714403755946
5.59125e-06	-0.005533564056504788
5.59150e-06	-0.005534413709253633
5.59175e-06	-0.005535263362002474
5.59200e-06	-0.005536113014751316
5.59225e-06	-0.0055369626675001605
5.59250e-06	-0.005525233755631571
5.59275e-06	-0.005512696219491903
5.59300e-06	-0.005500158683352192
5.59325e-06	-0.005487621147212524
5.59350e-06	-0.005475083611072813
5.59375e-06	-0.005462546074933145
5.59400e-06	-0.005445550949528211
5.59425e-06	-0.00542287324483624
5.59450e-06	-0.005400195540144346
5.59475e-06	-0.005377517835452452
5.59500e-06	-0.005354840130760481
5.59525e-06	-0.005332162426068587
5.59550e-06	-0.00530418053620866
5.59575e-06	-0.005275857662063499
5.59600e-06	-0.0052475347879184335
5.59625e-06	-0.005219211913773368
5.59650e-06	-0.005190889039628207
5.59675e-06	-0.005161864833100885
5.59700e-06	-0.00513194656105265
5.59725e-06	-0.005102115594995009
5.59750e-06	-0.005072395927485811
5.59775e-06	-0.005043051276564921
5.59800e-06	-0.0050141847005340705
5.59825e-06	-0.00498598801630757
5.59850e-06	-0.0049586453168393415
5.59875e-06	-0.004932625547068464
5.59900e-06	-0.004908292261279769
5.59925e-06	-0.004883958975490992
5.59950e-06	-0.004863318013235281
5.59975e-06	-0.004847384061872313
5.60000e-06	-0.004831450110509292
5.60025e-06	-0.004815516159146324
5.60050e-06	-0.004799582207783357
5.60075e-06	-0.004783648256420335
5.60100e-06	-0.0047677143050573675
5.60125e-06	-0.004751780353694401
5.60150e-06	-0.004735846402331379
5.60175e-06	-0.004719912450968412
5.60200e-06	-0.004708014595167992
5.60225e-06	-0.004701261994274613
5.60250e-06	-0.004694509393381235
5.60275e-06	-0.004687756792487834
5.60300e-06	-0.0046810041915944555
5.60325e-06	-0.004674251590701077
5.60350e-06	-0.004667498989807677
5.60375e-06	-0.004660746388914298
5.60400e-06	-0.00465399378802092
5.60425e-06	-0.004647241187127519
5.60450e-06	-0.004642923655737082
5.60475e-06	-0.004641710375253002
5.60500e-06	-0.004640497094768917
5.60525e-06	-0.004639283814284837
5.60550e-06	-0.004638070533800756
5.60575e-06	-0.004636857253316672
5.60600e-06	-0.0046356439728325914
5.60625e-06	-0.004634430692348508
5.60650e-06	-0.004633217411864427
5.60675e-06	-0.004632004131380347
5.60700e-06	-0.004631667124646351
5.60725e-06	-0.00463244720043485
5.60750e-06	-0.004633227276223347
5.60775e-06	-0.004634007352011848
5.60800e-06	-0.004634787427800346
5.60825e-06	-0.0046355675035888435
5.60850e-06	-0.004636347579377345
5.60875e-06	-0.004637127655165842
5.60900e-06	-0.004637907730954341
5.60925e-06	-0.004638687806742841
5.60950e-06	-0.0046395115397411734
5.60975e-06	-0.004640390927386334
5.61000e-06	-0.004641270315031498
5.61025e-06	-0.004642149702676657
5.61050e-06	-0.004643029090321821
5.61075e-06	-0.0046439084779669815
5.61100e-06	-0.004644787865612141
5.61125e-06	-0.004645667253257305
5.61150e-06	-0.004646546640902465
5.61175e-06	-0.004648906386303887
5.61200e-06	-0.004651361297826901
5.61225e-06	-0.004653816209349907
5.61250e-06	-0.004656271120872913
5.61275e-06	-0.004658726032395927
5.61300e-06	-0.0046611809439189335
5.61325e-06	-0.00466363585544194
5.61350e-06	-0.004666090766964954
5.61375e-06	-0.004668957565767221
5.61400e-06	-0.004672725912566427
5.61425e-06	-0.004676974187056678
5.61450e-06	-0.004681222461546916
5.61475e-06	-0.004685470736037167
5.61500e-06	-0.004689719010527405
5.61525e-06	-0.004693967285017642
5.61550e-06	-0.0046982155595078935
5.61575e-06	-0.004702463833998131
5.61600e-06	-0.004706712108488368
5.61625e-06	-0.0047109603829786195
5.61650e-06	-0.004715239035450151
5.61675e-06	-0.004719556414075425
5.61700e-06	-0.004723873792700713
5.61725e-06	-0.004728191171325987
5.61750e-06	-0.004732508549951261
5.61775e-06	-0.004736825928576548
5.61800e-06	-0.004741143307201822
5.61825e-06	-0.004745460685827096
5.61850e-06	-0.004749778064452384
5.61875e-06	-0.004754095443077658
5.61900e-06	-0.004757894137460324
5.61925e-06	-0.004761031607993775
5.61950e-06	-0.004764169078527225
5.61975e-06	-0.004765925824776067
5.62000e-06	-0.004765922409926626
5.62025e-06	-0.004765918995077186
5.62050e-06	-0.004765915580227746
5.62075e-06	-0.004765912165378305
5.62100e-06	-0.004765908750528865
5.62125e-06	-0.004765905335679425
5.62150e-06	-0.004765901920829985
5.62175e-06	-0.004760225089828512
5.62200e-06	-0.004754183538198788
5.62225e-06	-0.004748141986569084
5.62250e-06	-0.0047421004349393805
5.62275e-06	-0.004736058883309657
5.62300e-06	-0.004730017331679953
5.62325e-06	-0.0047239757800502285
5.62350e-06	-0.004715659780734835
5.62375e-06	-0.004704444292809932
5.62400e-06	-0.004693228804884991
5.62425e-06	-0.004682013316960088
5.62450e-06	-0.004670797829035185
5.62475e-06	-0.004659582341110244
5.62500e-06	-0.004648366853185341
5.62525e-06	-0.0046343401755147675
5.62550e-06	-0.004620132777998758
5.62575e-06	-0.0046059253804827975
5.62600e-06	-0.004591717982966837
5.62625e-06	-0.0045775105854508275
5.62650e-06	-0.004563303187934867
5.62675e-06	-0.004548790882112951
5.62700e-06	-0.004533889876139481
5.62725e-06	-0.004518988870166063
5.62750e-06	-0.004504311059109094
5.62775e-06	-0.00448991777915927
5.62800e-06	-0.004475524499209446
5.62825e-06	-0.00446163308370802
5.62850e-06	-0.004448381450014245
5.62875e-06	-0.004435129816320471
5.62900e-06	-0.004422544423887654
5.62925e-06	-0.004410808362463637
5.62950e-06	-0.004400008477821773
5.62975e-06	-0.004390402040685012
5.63000e-06	-0.0043807956035482815
5.63025e-06	-0.00437256484134633
5.63050e-06	-0.004366087803280716
5.63075e-06	-0.004359610765215123
5.63100e-06	-0.004354596946895654
5.63125e-06	-0.004351448455711727
5.63150e-06	-0.00434829996452781
5.63175e-06	-0.004347519912422888
5.63200e-06	-0.004349759170093255
5.63225e-06	-0.0043519984277636216
5.63250e-06	-0.0043542376854339955
5.63275e-06	-0.004356476943104362
5.63300e-06	-0.004358716200774728
5.63325e-06	-0.004360955458445102
5.63350e-06	-0.004369217540206291
5.63375e-06	-0.004377866804596941
5.63400e-06	-0.00438651606898762
5.63425e-06	-0.00439516533337827
5.63450e-06	-0.004403814597768919
5.63475e-06	-0.004412463862159599
5.63500e-06	-0.004423034877664196
5.63525e-06	-0.00443605576066807
5.63550e-06	-0.004449076643671987
5.63575e-06	-0.004462097526675861
5.63600e-06	-0.004475118409679778
5.63625e-06	-0.004488139292683652
5.63650e-06	-0.004501160175687526
5.63675e-06	-0.004514181058691443
5.63700e-06	-0.004527770502572036
5.63725e-06	-0.004541396496896716
5.63750e-06	-0.0045550224912214434
5.63775e-06	-0.004568648485546125
5.63800e-06	-0.004582274479870805
5.63825e-06	-0.004595900474195533
5.63850e-06	-0.004609526468520214
5.63875e-06	-0.004620952349723598
5.63900e-06	-0.0046295735047628865
5.63925e-06	-0.004638194659802145
5.63950e-06	-0.004646815814841404
5.63975e-06	-0.004655436969880691
5.64000e-06	-0.00466405812491995
5.64025e-06	-0.004672679279959238
5.64050e-06	-0.004681300434998497
5.64075e-06	-0.004689921590037755
5.64100e-06	-0.0046985427450770435
5.64125e-06	-0.004700346705552273
5.64150e-06	-0.004701712416582481
5.64175e-06	-0.004703078127612692
5.64200e-06	-0.0047044438386429
5.64225e-06	-0.004705809549673107
5.64250e-06	-0.00470717526070332
5.64275e-06	-0.004708540971733527
5.64300e-06	-0.004709906682763734
5.64325e-06	-0.004711272393793947
5.64350e-06	-0.004710170710861142
5.64375e-06	-0.004705923569480037
5.64400e-06	-0.004701676428098918
5.64425e-06	-0.004697429286717813
5.64450e-06	-0.004693182145336694
5.64475e-06	-0.004688935003955589
5.64500e-06	-0.004684687862574485
5.64525e-06	-0.0046804407211933656
5.64550e-06	-0.00467619357981226
5.64575e-06	-0.0046708063998291095
5.64600e-06	-0.004663965887258679
5.64625e-06	-0.0046571253746882715
5.64650e-06	-0.004650284862117863
