Time(s)	Current(A)
1.15000e-05	0.0022296577737429503
1.15003e-05	0.0021621248497390513
1.15005e-05	0.002094591925735152
1.15007e-05	0.0020270590017317106
1.15010e-05	0.0019595260777278117
1.15013e-05	0.0018965774877852247
1.15015e-05	0.0018407656309122695
1.15018e-05	0.001784953774038936
1.15020e-05	0.0017291419171656026
1.15023e-05	0.0016733300602922692
1.15025e-05	0.0016234041455505245
1.15028e-05	0.0015826412624051624
1.15030e-05	0.001546691344479094
1.15033e-05	0.00151823408471998
1.15035e-05	0.0014947838031575415
1.15038e-05	0.0014791282124705415
1.15040e-05	0.001468494170305092
1.15043e-05	0.0014656775015934797
1.15045e-05	0.0014666893677834226
1.15048e-05	0.0014776902646223891
1.15050e-05	0.0014949632133755364
1.15053e-05	0.0015174794072445714
1.15055e-05	0.0015481581041747719
1.15058e-05	0.0015836689581738273
1.15060e-05	0.001626702347548441
1.15063e-05	0.001674159697242936
1.15065e-05	0.0017285041157015766
1.15068e-05	0.0017869997106856764
1.15070e-05	0.0018519577140348384
1.15073e-05	0.001921362079578514
1.15075e-05	0.001997688388350482
1.15078e-05	0.0020740146971219326
1.15080e-05	0.002155383058421574
1.15083e-05	0.002244600713104947
1.15085e-05	0.0023338183677877153
1.15088e-05	0.0024230360224710887
1.15090e-05	0.0025122536771544617
1.15092e-05	0.0026014713318372306
1.15095e-05	0.0026949587709429604
1.15098e-05	0.0027889679109413534
1.15100e-05	0.002882977050939109
1.15103e-05	0.0029769861909375015
1.15105e-05	0.003070995330935894
1.15108e-05	0.003157774370078079
1.15110e-05	0.003233297837702456
1.15113e-05	0.0033088213053273446
1.15115e-05	0.0033843447729522335
1.15118e-05	0.0034598682405766103
1.15120e-05	0.003535391708201499
1.15123e-05	0.003610915175826388
1.15125e-05	0.0036864386434507647
1.15128e-05	0.0037619621110756532
1.15130e-05	0.0038043171175692605
1.15133e-05	0.003842619456744169
1.15135e-05	0.0038809217959193372
1.15138e-05	0.003919224135094506
1.15140e-05	0.003957526474269414
1.15143e-05	0.003995828813444582
1.15145e-05	0.004034131152619751
1.15148e-05	0.004072433491794659
1.15150e-05	0.004097903139430546
1.15153e-05	0.004103395295703994
1.15155e-05	0.004108887451977405
1.15158e-05	0.004114379608250853
1.15160e-05	0.004119871764524301
1.15163e-05	0.004125363920797712
1.15165e-05	0.004130856077071161
1.15168e-05	0.004136348233344608
1.15170e-05	0.004141840389618019
1.15173e-05	0.0041473325458914675
1.15175e-05	0.004133211042248583
1.15177e-05	0.004116693056048313
1.15180e-05	0.004100175069847931
1.15183e-05	0.004083657083647551
1.15185e-05	0.004067139097447281
1.15188e-05	0.0040506211112469
1.15190e-05	0.004034103125046518
1.15193e-05	0.0040175851388461374
1.15195e-05	0.004001067152645868
1.15198e-05	0.003982211531154551
1.15200e-05	0.003959716759708378
1.15203e-05	0.003937221988262357
1.15205e-05	0.003914727216816185
1.15208e-05	0.003892232445370011
1.15210e-05	0.0038697376739239907
1.15213e-05	0.0038472429024778176
1.15215e-05	0.003828163823924978
1.15218e-05	0.0038095020896352564
1.15220e-05	0.0037908403553454087
1.15223e-05	0.003772178621055561
1.15225e-05	0.0037535168867658393
1.15228e-05	0.0037348551524759915
1.15230e-05	0.00371029519375616
1.15233e-05	0.0036765530827762047
1.15235e-05	0.00364281097179602
1.15238e-05	0.0036090688608158357
1.15240e-05	0.00357532674983588
1.15243e-05	0.0035415846388556953
1.15245e-05	0.003507842527875511
1.15248e-05	0.003474100416895555
1.15250e-05	0.0034403583059153704
1.15253e-05	0.003406616194935186
1.15255e-05	0.003346267545010543
1.15258e-05	0.0032826679920513395
1.15260e-05	0.0032190684390921358
1.15262e-05	0.0031554688861333627
1.15265e-05	0.003091869333174159
1.15268e-05	0.0030282697802149552
1.15270e-05	0.0029646702272561826
1.15273e-05	0.002901070674296979
1.15275e-05	0.002837471121337775
1.15278e-05	0.0027670400564781318
1.15280e-05	0.0026859739296281626
1.15283e-05	0.0026049078027776443
1.15285e-05	0.002523841675927126
1.15288e-05	0.002442775549077157
1.15290e-05	0.0023617094222266387
1.15293e-05	0.002278658241340701
1.15295e-05	0.0021953645178907997
1.15298e-05	0.0021120707944403344
1.15300e-05	0.0020287770709898688
1.15303e-05	0.0019454833475399673
1.15305e-05	0.0018644743861930485
1.15308e-05	0.0017870222636487995
1.15310e-05	0.0017095701411050756
1.15313e-05	0.0016353594604463602
1.15315e-05	0.0015661949446629708
1.15318e-05	0.00149703042888005
1.15320e-05	0.0014319000109914602
1.15323e-05	0.001373049737501508
1.15325e-05	0.0013178377651117787
1.15328e-05	0.0012682897743277297
1.15330e-05	0.001221583178956208
1.15333e-05	0.0011792999699157334
1.15335e-05	0.0011399273197967058
1.15338e-05	0.001105085727373088
1.15340e-05	0.0010735177681457737
1.15343e-05	0.001047046088115547
1.15345e-05	0.0010238612228718612
1.15347e-05	0.001005793157470817
1.15350e-05	0.0009903551039456716
1.15353e-05	0.000979011362156173
1.15355e-05	0.0009701834031750952
1.15358e-05	0.0009652719280586915
1.15360e-05	0.0009629461619253518
1.15362e-05	0.0009646457383125222
1.15365e-05	0.0009687816892393622
1.15368e-05	0.000976710503978378
1.15370e-05	0.0009865068245317834
1.15373e-05	0.0009992104136954609
1.15375e-05	0.0010139385798075098
1.15378e-05	0.001031818537451158
1.15380e-05	0.0010496984950946846
1.15383e-05	0.0010701962419609743
1.15385e-05	0.0010947692727578922
1.15388e-05	0.0011193423035546438
1.15390e-05	0.0011439153343515618
1.15393e-05	0.0011684883651484797
1.15395e-05	0.0011930613959452313
1.15398e-05	0.0012202993545227022
1.15400e-05	0.001247862925605977
1.15403e-05	0.001275426496689065
1.15405e-05	0.0013029900677723398
1.15408e-05	0.0013305536388556144
1.15410e-05	0.0013566134199898292
1.15413e-05	0.0013803321528223368
1.15415e-05	0.0014040508856548444
1.15418e-05	0.0014277696184871913
1.15420e-05	0.0014514883513196992
1.15423e-05	0.0014752070841522068
1.15425e-05	0.0014946306634362038
1.15428e-05	0.0015135294421158997
1.15430e-05	0.0015324282207955957
1.15432e-05	0.0015513269994751637
1.15435e-05	0.0015702257781548595
1.15438e-05	0.0015899773145493551
1.15440e-05	0.001611056394728546
1.15443e-05	0.0016321354749078798
1.15445e-05	0.0016532145550872135
1.15447e-05	0.0016742936352664042
1.15450e-05	0.001695372715445738
1.15453e-05	0.0017164517956250716
1.15455e-05	0.0017375308758044053
1.15458e-05	0.001758609955983596
1.15460e-05	0.00177968903616293
1.15463e-05	0.0018007681163422634
1.15465e-05	0.0018218471965214544
1.15468e-05	0.001842926276700788
1.15470e-05	0.0018680311299079937
1.15473e-05	0.0018936278696320987
1.15475e-05	0.0019192246093563772
1.15478e-05	0.0019448213490806557
1.15480e-05	0.0019704180888047607
1.15483e-05	0.001996014828529039
1.15485e-05	0.0020216115682533176
1.15488e-05	0.0020472083079774227
1.15490e-05	0.002072805047701701
1.15493e-05	0.002098401787425979
1.15495e-05	0.002123998527150084
1.15498e-05	0.0021495952668743627
1.15500e-05	0.0021721484802759115
1.15503e-05	0.00218996363691804
1.15505e-05	0.0022077787935602896
1.15508e-05	0.0022255939502025387
1.15510e-05	0.0022434091068446677
1.15513e-05	0.002261224263486917
1.15515e-05	0.0022790394201291663
1.15517e-05	0.002296854576771295
1.15520e-05	0.002314669733413544
1.15523e-05	0.0023324848900557935
1.15525e-05	0.002350300046697922
1.15528e-05	0.002368115203340171
1.15530e-05	0.0023859303599824207
1.15532e-05	0.0024037455166245492
1.15535e-05	0.0024215606732667988
1.15538e-05	0.002439375829909048
1.15540e-05	0.002457190986551297
1.15543e-05	0.0024589859952397096
1.15545e-05	0.002458823592338024
1.15548e-05	0.002458661189436338
1.15550e-05	0.0024584987865346533
1.15553e-05	0.0024583363836329676
1.15555e-05	0.002458173980731282
1.15558e-05	0.0024580115778295975
1.15560e-05	0.002457849174927912
1.15563e-05	0.0024576867720262257
1.15565e-05	0.0024575243691245413
1.15568e-05	0.0024573619662228556
1.15570e-05	0.00245719956332117
1.15573e-05	0.002457037160419485
1.15575e-05	0.0024568747575177993
1.15578e-05	0.0024567123546161136
1.15580e-05	0.002456549951714429
1.15583e-05	0.002453235365403849
1.15585e-05	0.0024450135687305715
1.15588e-05	0.00243679177205735
1.15590e-05	0.002428569975384073
1.15593e-05	0.002420348178710796
1.15595e-05	0.0024121263820375744
1.15598e-05	0.002403904585364297
1.15600e-05	0.00239568278869102
1.15602e-05	0.0023874609920177987
1.15605e-05	0.0023792391953445214
1.15608e-05	0.0023710173986712445
1.15610e-05	0.002362795601998023
1.15613e-05	0.002354520167273064
1.15615e-05	0.0023462381788168668
1.15617e-05	0.0023379561903607254
1.15620e-05	0.002329674201904528
1.15623e-05	0.0023213922134483304
1.15625e-05	0.002313110224992133
1.15628e-05	0.002304828236535992
1.15630e-05	0.0022965462480797946
1.15633e-05	0.002288264259623597
1.15635e-05	0.0022799822711674555
1.15638e-05	0.0022717002827112582
1.15640e-05	0.0022601020114696568
1.15643e-05	0.0022433410656174566
1.15645e-05	0.0022265801197651433
1.15648e-05	0.0022098191739128295
1.15650e-05	0.0021930582280606293
1.15653e-05	0.0021762972822083155
1.15655e-05	0.0021595363363560017
1.15658e-05	0.0021427753905038016
1.15660e-05	0.002126014444651488
1.15663e-05	0.002109253498799174
1.15665e-05	0.002092492552946974
1.15668e-05	0.0020671078750856935
1.15670e-05	0.0020406695120118563
1.15673e-05	0.002014231148938198
1.15675e-05	0.001987792785864361
1.15678e-05	0.0019613544227905237
1.15680e-05	0.0019349160597168656
1.15683e-05	0.0019084776966430284
1.15685e-05	0.0018820393335691912
1.15687e-05	0.0018556009704955333
1.15690e-05	0.0018291626074216961
1.15693e-05	0.0018023078672249177
1.15695e-05	0.0017748049254904534
1.15698e-05	0.0017473019837558029
1.15700e-05	0.0017197990420211523
1.15702e-05	0.0016922961002866883
1.15705e-05	0.0016647931585520377
1.15708e-05	0.0016372902168173872
1.15710e-05	0.0016097872750827366
1.15713e-05	0.0015822843333482724
1.15715e-05	0.001560726299553182
1.15718e-05	0.0015398946405552258
1.15720e-05	0.0015190629815574105
1.15723e-05	0.001498231322559454
1.15725e-05	0.0014773996635614975
1.15728e-05	0.0014565680045636822
1.15730e-05	0.0014357363455657257
1.15733e-05	0.0014149046865677695
1.15735e-05	0.0013924488820665714
1.15738e-05	0.0013674646638863917
1.15740e-05	0.0013424804457062122
1.15743e-05	0.001317496227526202
1.15745e-05	0.0012925120093460222
1.15748e-05	0.0012675277911658428
1.15750e-05	0.0012425435729858324
1.15753e-05	0.0012175593548056527
1.15755e-05	0.0011925751366254733
1.15758e-05	0.001167590918445463
1.15760e-05	0.001138609318073953
1.15763e-05	0.0011034047310353465
1.15765e-05	0.0010682001439969787
1.15768e-05	0.0010329955569583723
1.15770e-05	0.000997790969919766
1.15772e-05	0.0009625863828813981
1.15775e-05	0.0009273817958427916
1.15778e-05	0.0008921772088041852
1.15780e-05	0.0008569726217658173
1.15783e-05	0.000821768034727211
1.15785e-05	0.0007850095068954516
1.15787e-05	0.0007458318576551903
1.15790e-05	0.0007066542084146634
1.15793e-05	0.0006674765591741365
1.15795e-05	0.0006282989099336096
1.15798e-05	0.0005900672304897203
1.15800e-05	0.0005519511337638259
1.15803e-05	0.0005138350370379316
1.15805e-05	0.00047571894031229556
1.15808e-05	0.00043874405982744635
1.15810e-05	0.000403545785409666
1.15813e-05	0.00036904113242905
1.15815e-05	0.00033620126113145034
1.15818e-05	0.0003049532225889648
1.15820e-05	0.00027554294416914373
1.15823e-05	0.00024822151545939323
1.15825e-05	0.00022341995240295282
1.15828e-05	0.00020205352862501981
1.15830e-05	0.00018522505347226152
1.15833e-05	0.0001735157518530538
1.15835e-05	0.0001669692531116863
1.15838e-05	0.00016549131335350778
1.15840e-05	0.00016898766274904488
1.15843e-05	0.0001773672661359691
1.15845e-05	0.00019065179793195395
1.15848e-05	0.00020916621153888815
1.15850e-05	0.0002333529144193489
1.15853e-05	0.000263327541293779
1.15855e-05	0.00029886898307559634
1.15857e-05	0.00033966980209763914
1.15860e-05	0.00038542250500862857
1.15863e-05	0.00043582166383677887
1.15865e-05	0.0004906325040270881
1.15868e-05	0.0005498101565974728
1.15870e-05	0.0006133833520281256
1.15872e-05	0.0006818732002221015
1.15875e-05	0.0007538867869816688
1.15878e-05	0.0008283435325858725
1.15880e-05	0.000906603703580199
1.15883e-05	0.0009869902502797486
1.15885e-05	0.0010706870653097772
1.15888e-05	0.0011543838803398055
1.15890e-05	0.0012396954035218317
1.15893e-05	0.001327520648642291
1.15895e-05	0.00141534589376275
1.15898e-05	0.001503171138882614
1.15900e-05	0.0015909963840030732
1.15903e-05	0.001675561820986201
1.15905e-05	0.0017597289603833578
1.15908e-05	0.001843896099781085
1.15910e-05	0.001928063239178812
1.15913e-05	0.002008241468928269
1.15915e-05	0.002082209901771954
1.15918e-05	0.0021561783346156394
1.15920e-05	0.002224778452810933
1.15923e-05	0.0022850213639907936
1.15925e-05	0.002345264275170654
1.15928e-05	0.0024005615325325847
1.15930e-05	0.0024481595666760326
1.15933e-05	0.0024957576008194805
1.15935e-05	0.002539083919363615
1.15938e-05	0.0025757601784541177
1.15940e-05	0.002612436437544621
1.15942e-05	0.0026441982172410155
1.15945e-05	0.0026683093049854503
1.15948e-05	0.002692420392729885
1.15950e-05	0.0027127094718704444
1.15953e-05	0.0027270485798905116
1.15955e-05	0.002741387687910579
1.15957e-05	0.002749451778336264
1.15960e-05	0.0027477471378825795
1.15963e-05	0.002746042497428895
1.15965e-05	0.002744337856975211
1.15968e-05	0.0027426332165215385
1.15970e-05	0.002740928576067854
1.15973e-05	0.0027392239356141697
1.15975e-05	0.002737519295160497
1.15978e-05	0.0027297859097459858
1.15980e-05	0.0027126671821904582
1.15983e-05	0.0026955484546350465
1.15985e-05	0.0026784297270795194
1.15988e-05	0.002661310999523992
1.15990e-05	0.00264419227196858
1.15993e-05	0.0026270735444130526
1.15995e-05	0.0026099548168575255
1.15998e-05	0.002591478159621
1.16000e-05	0.0025708875243103378
1.16003e-05	0.002550296888999675
1.16005e-05	0.002529706253689152
1.16008e-05	0.00250911561837849
1.16010e-05	0.0024885249830678274
1.16013e-05	0.0024679343477573045
1.16015e-05	0.0024473437124466423
1.16018e-05	0.0024267530771359797
1.16020e-05	0.0024061624418254567
1.16023e-05	0.002393402052374828
1.16025e-05	0.002381598396538685
1.16027e-05	0.0023697947407026222
1.16030e-05	0.002357991084866479
1.16033e-05	0.002346187429030336
1.16035e-05	0.002334383773194273
1.16038e-05	0.00232258011735813
1.16040e-05	0.0023107764615219874
1.16042e-05	0.002298972805685924
1.16045e-05	0.002291709093758319
1.16048e-05	0.0022915130098640764
1.16050e-05	0.0022913169259698336
1.16053e-05	0.0022911208420755926
1.16055e-05	0.00229092475818135
1.16058e-05	0.002290728674287107
1.16060e-05	0.0022905325903928657
1.16063e-05	0.0022903365064986234
1.16065e-05	0.0022901404226043807
1.16068e-05	0.0022899443387101393
1.16070e-05	0.0022897482548158966
1.16073e-05	0.0022895521709216543
1.16075e-05	0.0022961842669332612
1.16078e-05	0.0023036506597678193
1.16080e-05	0.0023111170526023774
1.16083e-05	0.0023185834454368852
1.16085e-05	0.0023260498382714433
1.16088e-05	0.0023335162311060014
1.16090e-05	0.0023409826239405088
1.16093e-05	0.0023484490167750673
1.16095e-05	0.0023559154096096254
1.16098e-05	0.0023633818024441327
1.16100e-05	0.002370848195278691
1.16103e-05	0.0023784647614388857
1.16105e-05	0.0023863151122509104
1.16108e-05	0.002394165463062988
1.16110e-05	0.0024020158138750654
1.16113e-05	0.0024098661646870896
1.16115e-05	0.002417716515499167
1.16118e-05	0.0024255668663112446
1.16120e-05	0.002433417217123269
1.16123e-05	0.002441500522381511
1.16125e-05	0.0024499464830838855
1.16127e-05	0.002458392443786203
1.16130e-05	0.0024668384044885775
1.16133e-05	0.002475284365190952
1.16135e-05	0.0024837303258933266
1.16138e-05	0.002492176286595644
1.16140e-05	0.0025006222472980185
1.16143e-05	0.002512852612726925
1.16145e-05	0.002530974408860528
1.16148e-05	0.002549096204994253
1.16150e-05	0.002567218001127979
1.16153e-05	0.0025853397972615817
1.16155e-05	0.002603461593395307
1.16158e-05	0.0026215833895290325
1.16160e-05	0.0026397051856626354
1.16163e-05	0.002657826981796361
1.16165e-05	0.0026759487779300863
1.16168e-05	0.002694070574063689
1.16170e-05	0.002712192370197415
1.16173e-05	0.0027386644003743565
1.16175e-05	0.0027661566985923893
1.16178e-05	0.0027936489968106086
1.16180e-05	0.002821141295028828
1.16183e-05	0.0028486335932468606
1.16185e-05	0.00287612589146508
1.16188e-05	0.0029036181896832988
1.16190e-05	0.002931110487901332
1.16193e-05	0.002958602786119551
1.16195e-05	0.00298609508433777
1.16198e-05	0.003013587382555803
1.16200e-05	0.003039957564903208
1.16203e-05	0.0030645808759789325
1.16205e-05	0.0030892041870544907
1.16208e-05	0.003113827498130216
1.16210e-05	0.003138450809205941
1.16212e-05	0.0031630741202814993
1.16215e-05	0.0031876974313572244
1.16218e-05	0.003212320742432949
1.16220e-05	0.0032369440535086743
1.16223e-05	0.0032615673645842325
1.16225e-05	0.0032810494123370966
1.16228e-05	0.003299903278097034
1.16230e-05	0.0033187571438568434
1.16233e-05	0.0033376110096167808
1.16235e-05	0.003356464875376718
1.16238e-05	0.003375318741136528
1.16240e-05	0.0033941726068964654
1.16243e-05	0.0034130264726564027
1.16245e-05	0.0034318803384162126
1.16248e-05	0.003451628259141385
1.16250e-05	0.0034727680137893813
1.16253e-05	0.003493907768437234
1.16255e-05	0.0035150475230852304
1.16258e-05	0.0035361872777332267
1.16260e-05	0.00355732703238108
1.16263e-05	0.0035784667870290762
1.16265e-05	0.0035990682330804507
1.16268e-05	0.0036241248693900043
1.16270e-05	0.003648189236627194
1.16273e-05	-0.06314733193661427
1.16275e-05	-0.02791929466909238
1.16278e-05	-0.009394440226278705
1.16280e-05	0.005532927428014272
1.16283e-05	0.01816849231133156
1.16285e-05	0.02192250450867779
1.16288e-05	0.015178424537228797
1.16290e-05	0.0040449673348915815
1.16293e-05	-0.006717438398189988
1.16295e-05	-0.009744115786270324
1.16297e-05	-0.003164625004892397
1.16300e-05	0.006121110052729361
1.16303e-05	0.013880868498117238
1.16305e-05	0.016151877286944272
1.16308e-05	0.011880240478324092
1.16310e-05	0.004874378623221481
1.16313e-05	-0.0018918741413738159
1.16315e-05	-0.0038092000948388135
1.16318e-05	0.00029186644903312275
1.16320e-05	0.006088072140229404
1.16323e-05	0.0109279153582904
1.16325e-05	0.012329016275225325
1.16328e-05	0.009631166579260947
1.16330e-05	0.005219820863515768
1.16333e-05	0.000957675108471509
1.16335e-05	-0.000268119400251436
1.16338e-05	0.0022747621580951416
1.16340e-05	0.005878104714214867
1.16343e-05	0.008881078484023293
1.16345e-05	0.009728938873933494
1.16348e-05	0.008008438191084558
1.16350e-05	0.005214080598986204
1.16353e-05	0.0025127930708007708
1.16355e-05	0.0017130855904564644
1.16358e-05	0.003273585094224429
1.16360e-05	0.005497826166193657
1.16363e-05	0.007345549864090973
1.16365e-05	0.007843042157217074
1.16368e-05	0.006731678056260759
1.16370e-05	0.004947815067546898
1.16373e-05	0.003222541969163275
1.16375e-05	0.002688749419589663
1.16378e-05	0.0036336989706319853
1.16380e-05	0.004994741336254608
1.16382e-05	0.006120353064429065
1.16385e-05	0.006400752160617095
1.16388e-05	0.005674123565143364
1.16390e-05	0.004527168881868038
1.16393e-05	0.0034179624048103225
1.16395e-05	0.003056213575763289
1.16398e-05	0.0036218907548184755
1.16400e-05	0.00444940232412352
1.16403e-05	0.005130735155004152
1.16405e-05	0.005284059797289269
1.16408e-05	0.004808174360153615
1.16410e-05	0.004070735471204308
1.16413e-05	0.003358798376249442
1.16415e-05	0.0031170087217621415
1.16418e-05	0.0034581580653141376
1.16420e-05	0.003965394896143101
1.16423e-05	0.004383242318864462
1.16425e-05	0.004472418250482107
1.16428e-05	0.004168812091459226
1.16430e-05	0.003701645867148593
1.16433e-05	0.003250068395929129
1.16435e-05	0.0030924659908078264
1.16438e-05	0.0032994954352567048
1.16440e-05	0.0036100548689083464
1.16443e-05	0.0038641465485973504
1.16445e-05	0.003911931581034941
1.16448e-05	0.0037133070018043803
1.16450e-05	0.0034119084044135994
1.16453e-05	0.003119994500450023
1.16455e-05	0.0030119730680045337
1.16458e-05	0.003132120560763467
1.16460e-05	0.0033169059460010316
1.16463e-05	0.0034661418665008514
1.16465e-05	0.0034860133994038768
1.16467e-05	0.0033514496757537328
1.16470e-05	0.003152470827752647
1.16473e-05	0.002959435131268932
1.16475e-05	0.0028816228434037604
1.16478e-05	0.002946794057143539
1.16480e-05	0.0030525421521137705
1.16483e-05	0.003136146494402486
1.16485e-05	0.0031388838001859313
