Time(s)	Current(A)
1.47500e-05	-0.0049356089432019785
1.47503e-05	-0.004911173431559968
1.47505e-05	-0.004883565584555026
1.47508e-05	-0.004855957737549897
1.47510e-05	-0.004828349890544768
1.47513e-05	-0.0048007420435398265
1.47515e-05	-0.004768598134747438
1.47518e-05	-0.00473478618927925
1.47520e-05	-0.004700974243811292
1.47523e-05	-0.0046671622983431044
1.47525e-05	-0.004633350352874917
1.47528e-05	-0.0045984717696642965
1.47530e-05	-0.004563200953949103
1.47533e-05	-0.004528198423382244
1.47535e-05	-0.004493294548761685
1.47538e-05	-0.004459024446734317
1.47540e-05	-0.004425670710615966
1.47543e-05	-0.004393426895345355
1.47545e-05	-0.004363122839533299
1.47548e-05	-0.004333415977709502
1.47550e-05	-0.0043101148543882705
1.47553e-05	-0.004289169300117806
1.47555e-05	-0.004268223745847343
1.47558e-05	-0.004247278191577021
1.47560e-05	-0.004226332637306557
1.47563e-05	-0.004205387083036093
1.47565e-05	-0.004184441528765771
1.47568e-05	-0.004163495974495307
1.47570e-05	-0.004145065708779323
1.47573e-05	-0.004135002275307475
1.47575e-05	-0.004124938841835696
1.47578e-05	-0.0041148754083638476
1.47580e-05	-0.0041048119748919995
1.47583e-05	-0.00409474854142022
1.47585e-05	-0.004084685107948372
1.47588e-05	-0.004074621674476524
1.47590e-05	-0.004064558241004744
1.47593e-05	-0.004060266743400687
1.47595e-05	-0.004058097747908085
1.47598e-05	-0.004055928752415497
1.47600e-05	-0.0040537597569228956
1.47603e-05	-0.004051590761430294
1.47605e-05	-0.004049421765937707
1.47608e-05	-0.004047252770445104
1.47610e-05	-0.004045083774952502
1.47613e-05	-0.0040438884632368645
1.47615e-05	-0.004045932004100298
1.47618e-05	-0.004047975544963731
1.47620e-05	-0.00405001908582715
1.47623e-05	-0.0040520626266905835
1.47625e-05	-0.004054106167554016
1.47628e-05	-0.004056149708417435
1.47630e-05	-0.004058193249280868
1.47633e-05	-0.004060236790144302
1.47635e-05	-0.004062899984384196
1.47638e-05	-0.004065791042486446
1.47640e-05	-0.004068682100588696
1.47643e-05	-0.004071573158690926
1.47645e-05	-0.004074464216793176
1.47648e-05	-0.004077355274895426
1.47650e-05	-0.004079727977492207
1.47653e-05	-0.004081910066284531
1.47655e-05	-0.004084499179055026
1.47658e-05	-0.004087237965916327
1.47660e-05	-0.004092189935019411
1.47663e-05	-0.004097955753078856
1.47665e-05	-0.004106544693536427
1.47668e-05	-0.004116171774990162
1.47670e-05	-0.004125798856443963
1.47673e-05	-0.004138467183838602
1.47675e-05	-0.0041522538623514
1.47678e-05	-0.004166040540864291
1.47680e-05	-0.004185903809893445
1.47683e-05	-0.0042080016110620545
1.47685e-05	-0.004230099412230815
1.47688e-05	-0.004252197213399574
1.47690e-05	-0.004274295014568184
1.47693e-05	-0.004296392815736944
1.47695e-05	-0.004325091974987719
1.47698e-05	-0.004356218638076306
1.47700e-05	-0.004387345301165104
1.47703e-05	-0.004418471964253903
1.47705e-05	-0.00444959862734249
1.47708e-05	-0.004480725290431289
1.47710e-05	-0.004515833018083852
1.47713e-05	-0.004552404694424991
1.47715e-05	-0.0045889763707663775
1.47718e-05	-0.004625548047107765
1.47720e-05	-0.004662119723448904
1.47723e-05	-0.004698691399790291
1.47725e-05	-0.004735103580966188
1.47728e-05	-0.00477098521891974
1.47730e-05	-0.004806866856873536
1.47733e-05	-0.00484274849482733
1.47735e-05	-0.004878630132780882
1.47738e-05	-0.004914511770734677
1.47740e-05	-0.004950393408688472
1.47743e-05	-0.004982521699704995
1.47745e-05	-0.005013269780167004
1.47748e-05	-0.005044017860629221
1.47750e-05	-0.005066792714167378
1.47753e-05	-0.00508663558935734
1.47755e-05	-0.0051064784645474355
1.47758e-05	-0.005126321339737531
1.47760e-05	-0.005146164214927493
1.47763e-05	-0.005166007090117589
1.47765e-05	-0.0051858499653076855
1.47768e-05	-0.005205692840497647
1.47770e-05	-0.005214157088859895
1.47773e-05	-0.00521843709816687
1.47775e-05	-0.0052227171074738146
1.47778e-05	-0.00522699711678079
1.47780e-05	-0.005231277126087764
1.47783e-05	-0.005235557135394709
1.47785e-05	-0.005239837144701684
1.47788e-05	-0.005244117154008659
1.47790e-05	-0.005239163370704608
1.47793e-05	-0.005230814063823174
1.47795e-05	-0.005222464756941738
1.47798e-05	-0.005214115450060359
1.47800e-05	-0.005205766143178924
1.47803e-05	-0.005197416836297489
1.47805e-05	-0.00518906752941611
1.47808e-05	-0.005179012946767119
1.47810e-05	-0.005163285950802274
1.47813e-05	-0.005147558954837535
1.47815e-05	-0.00513183195887269
1.47818e-05	-0.005116104962907845
1.47820e-05	-0.005100377966943107
1.47823e-05	-0.005084650970978262
1.47825e-05	-0.005068923975013417
1.47828e-05	-0.005052471080845948
1.47830e-05	-0.00503575125362455
1.47833e-05	-0.005019031426403037
1.47835e-05	-0.005002311599181525
1.47838e-05	-0.004985591771960126
1.47840e-05	-0.004968871944738614
1.47843e-05	-0.004952152117517102
1.47845e-05	-0.004935432290295703
1.47848e-05	-0.004918712463074191
1.47850e-05	-0.0049078963844556445
1.47853e-05	-0.0048992512791765485
1.47855e-05	-0.004890606173897394
1.47858e-05	-0.00488196106861824
1.47860e-05	-0.004873315963339145
1.47863e-05	-0.004864670858059991
1.47865e-05	-0.004856025752780836
1.47868e-05	-0.004847380647501741
1.47870e-05	-0.0048387355422225865
1.47873e-05	-0.004839071823239522
1.47875e-05	-0.004842710810979381
1.47878e-05	-0.004846349798719265
1.47880e-05	-0.00484998878645915
1.47883e-05	-0.004853627774199009
1.47885e-05	-0.004857266761938893
1.47888e-05	-0.004860905749678778
1.47890e-05	-0.0048668446338591236
1.47893e-05	-0.004880433871986221
1.47895e-05	-0.004894023110113319
1.47898e-05	-0.004907612348240323
1.47900e-05	-0.004921201586367421
1.47903e-05	-0.0049347908244945175
1.47905e-05	-0.004948380062621523
1.47908e-05	-0.00496196930074862
1.47910e-05	-0.004979786912550526
1.47913e-05	-0.004999159415513274
1.47915e-05	-0.005018531918475891
1.47918e-05	-0.00503790442143864
1.47920e-05	-0.005057276924401388
1.47923e-05	-0.005076649427364005
1.47925e-05	-0.005096021930326753
1.47928e-05	-0.005115328059765
1.47930e-05	-0.005134413404933779
1.47933e-05	-0.005153498750102688
1.47935e-05	-0.005172584095271596
1.47938e-05	-0.0051916694404403755
1.47940e-05	-0.005210754785609284
1.47943e-05	-0.005229840130778192
1.47945e-05	-0.005248925475946971
1.47948e-05	-0.005265408670804855
1.47950e-05	-0.005280934982276914
1.47953e-05	-0.005294458858343661
1.47955e-05	-0.005307246382954419
1.47958e-05	-0.005315220776676229
1.47960e-05	-0.00532142524766829
1.47963e-05	-0.005327629718660392
1.47965e-05	-0.005327031050271907
1.47968e-05	-0.005323930677421026
1.47970e-05	-0.005320830304570124
1.47973e-05	-0.0053110675172048805
1.47975e-05	-0.0052988547738431445
1.47978e-05	-0.005286642030481326
1.47980e-05	-0.005264584130081925
1.47983e-05	-0.005238905890319316
1.47985e-05	-0.005213227650556533
1.47988e-05	-0.00518754941079375
1.47990e-05	-0.005161871171031141
1.47993e-05	-0.005125733351306877
1.47995e-05	-0.005085749251739941
1.47998e-05	-0.005045765152173004
1.48000e-05	-0.0050057810526063385
1.48003e-05	-0.004965796953039402
1.48005e-05	-0.004919125766711613
1.48008e-05	-0.0048699955517128276
1.48010e-05	-0.004820865336713708
1.48013e-05	-0.004769065491560567
1.48015e-05	-0.004716283948797811
1.48018e-05	-0.004661997047173232
1.48020e-05	-0.0046071565830282865
1.48023e-05	-0.004551577994262741
1.48025e-05	-0.00449554684992553
1.48028e-05	-0.004439506638617098
1.48030e-05	-0.004383784469826995
1.48033e-05	-0.0043287063415858975
1.48035e-05	-0.004274562683405248
1.48038e-05	-0.0042215905142697
1.48040e-05	-0.00417004327724409
1.48043e-05	-0.004120239386352873
1.48045e-05	-0.004072532573006712
1.48048e-05	-0.004031010969234951
1.48050e-05	-0.003991546951237766
1.48053e-05	-0.0039520829332408474
1.48055e-05	-0.003912618915243663
1.48058e-05	-0.003875074371737497
1.48060e-05	-0.003843914750177797
1.48063e-05	-0.0038127551286178856
1.48065e-05	-0.003781595507057974
1.48068e-05	-0.003750435885498274
1.48070e-05	-0.0037251544375925135
1.48073e-05	-0.0037020345584044974
1.48075e-05	-0.003678914679216638
1.48078e-05	-0.003655794800028622
1.48080e-05	-0.003632674920840606
1.48083e-05	-0.0036095550416525898
1.48085e-05	-0.0035864351624647303
1.48088e-05	-0.003563315283276714
1.48090e-05	-0.003544732078707573
1.48093e-05	-0.003527817136173047
1.48095e-05	-0.0035109021936384067
1.48098e-05	-0.0034939872511037663
1.48100e-05	-0.003477072308569241
1.48103e-05	-0.0034601573660346004
1.48105e-05	-0.00344324242349996
1.48108e-05	-0.003426327480965434
1.48110e-05	-0.003412285705905585
1.48113e-05	-0.0033993004748168448
1.48115e-05	-0.003386315243728192
1.48118e-05	-0.0033733300126394515
1.48120e-05	-0.0033603447815507112
1.48123e-05	-0.0033473595504620586
1.48125e-05	-0.0033343743193733183
1.48128e-05	-0.003323534518311558
1.48130e-05	-0.0033134836518248557
1.48133e-05	-0.0033034327853380847
1.48135e-05	-0.0032933819188513142
1.48138e-05	-0.0032833310523646114
1.48140e-05	-0.0032732801858778404
1.48143e-05	-0.00326322931939107
1.48145e-05	-0.0032542992826899144
1.48148e-05	-0.0032460987182982392
1.48150e-05	-0.003238376240234823
1.48153e-05	-0.0032311998120626044
1.48155e-05	-0.003224819468269886
1.48158e-05	-0.003219769056607176
1.48160e-05	-0.003216516492689264
1.48163e-05	-0.0032152054840709566
1.48165e-05	-0.0032158031536176617
1.48168e-05	-0.003218248266870097
1.48170e-05	-0.0032231068931576692
1.48173e-05	-0.003228672011202303
1.48175e-05	-0.0032369580275120667
1.48178e-05	-0.0032462445941494602
1.48180e-05	-0.003259517731689515
1.48183e-05	-0.0032742568427553795
1.48185e-05	-0.003288995953821144
1.48188e-05	-0.003309171516142035
1.48190e-05	-0.003331346213511372
1.48193e-05	-0.003353520910880559
1.48195e-05	-0.003375695608249896
1.48198e-05	-0.003397870305619233
1.48200e-05	-0.0034256395313934642
1.48203e-05	-0.0034554660216019706
1.48205e-05	-0.0034852925118104773
1.48208e-05	-0.0035151190020187816
1.48210e-05	-0.0035449454922272883
1.48213e-05	-0.0035775916207571408
1.48215e-05	-0.0036112746090926013
1.48218e-05	-0.0036449575974282903
1.48220e-05	-0.0036797092435887067
1.48223e-05	-0.003714853865094802
1.48225e-05	-0.0037499984866011353
1.48228e-05	-0.0037849614141471466
1.48230e-05	-0.00381985752774625
1.48233e-05	-0.00385475364134559
1.48235e-05	-0.0038885273890210837
1.48238e-05	-0.00392188841138148
1.48240e-05	-0.003953800166223827
1.48243e-05	-0.003985178984899702
1.48245e-05	-0.004012380249960129
1.48248e-05	-0.004038045311814024
1.48250e-05	-0.0040637103736679185
1.48253e-05	-0.004079949675803888
1.48255e-05	-0.006591215124275726
1.48258e-05	-0.01233766517313528
1.48260e-05	-0.014390723201438504
1.48263e-05	-0.013343661996022719
1.48265e-05	-0.010767173166297841
1.48268e-05	-0.006923009284578691
1.48270e-05	-0.004642334944266593
1.48273e-05	-0.0046040645498738614
1.48275e-05	-0.006300995204189554
1.48278e-05	-0.008986881293200482
1.48280e-05	-0.010549368030736556
1.48283e-05	-0.010172524572913684
1.48285e-05	-0.008456448914351123
1.48288e-05	-0.006250642529055028
1.48290e-05	-0.004759886574347796
1.48293e-05	-0.004599918609110259
1.48295e-05	-0.005655448432461605
1.48298e-05	-0.007441594948111813
1.48300e-05	-0.00862538904713366
1.48303e-05	-0.008301074813136352
1.48305e-05	-0.006953434656818171
1.48308e-05	-0.005463102972957557
1.48310e-05	-0.004136479209930166
1.48313e-05	-0.003715723331094718
1.48315e-05	-0.004332285511352285
1.48318e-05	-0.005315342763531276
1.48320e-05	-0.006302097714498056
1.48323e-05	-0.006469922886509268
1.48325e-05	-0.005722751526056816
1.48328e-05	-0.004793556167639301
1.48330e-05	-0.003961801981178397
1.48333e-05	-0.0036977464710410296
1.48335e-05	-0.004083664022698554
1.48338e-05	-0.004699304784145878
1.48340e-05	-0.005317394406987641
1.48343e-05	-0.0054226580334620494
1.48345e-05	-0.004954966498930402
1.48348e-05	-0.004373479624094778
1.48350e-05	-0.003853255844713553
1.48353e-05	-0.003688842862276287
1.48355e-05	-0.003931859285330179
1.48358e-05	-0.004319364365424646
1.48360e-05	-0.004709289402712321
1.48363e-05	-0.004778949938565535
1.48365e-05	-0.004490662159642321
1.48368e-05	-0.004132006268376573
1.48370e-05	-0.003812581408350098
1.48373e-05	-0.0037168237957771947
1.48375e-05	-0.0038769883421157897
1.48378e-05	-0.004128297099726039
1.48380e-05	-0.004381697937411274
1.48383e-05	-0.004435015608371762
1.48385e-05	-0.0042646084985667534
1.48388e-05	-0.0040505730981876325
1.48390e-05	-0.0038615081299907487
1.48393e-05	-0.0038128811211396965
1.48395e-05	-0.003924828284782774
1.48398e-05	-0.00409406824170346
1.48400e-05	-0.004264761211123524
1.48403e-05	-0.004310216279234886
1.48405e-05	-0.004215581726786348
1.48408e-05	-0.004093622852689349
1.48410e-05	-0.003987256894123131
1.48413e-05	-0.003968752763539914
1.48415e-05	-0.004050661840664554
1.48418e-05	-0.004168227152357781
1.48420e-05	-0.004286416542832479
1.48423e-05	-0.0043258193504036755
1.48425e-05	-0.004277086661073891
1.48428e-05	-0.004210805887057979
1.48430e-05	-0.004153805875455684
1.48433e-05	-0.004151299520237062
1.48435e-05	-0.004211089023111053
1.48438e-05	-0.004292554023999401
1.48440e-05	-0.004373695077631092
1.48443e-05	-0.004404718631543135
1.48445e-05	-0.004379718597122163
1.48448e-05	-0.0043428605614870925
1.48450e-05	-0.0043108967067612015
1.48453e-05	-0.004312092277958959
1.48455e-05	-0.004351024667741888
1.48458e-05	-0.004401497047461307
1.48460e-05	-0.004449069655957437
1.48463e-05	-0.00446242644156117
1.48465e-05	-0.004438008632026956
1.48468e-05	-0.004403640210957904
1.48470e-05	-0.004369971674990167
1.48473e-05	-0.004354864753344411
1.48475e-05	-0.004361341661528135
1.48478e-05	-0.004373147619066867
1.48480e-05	-0.0043813951340469824
1.48483e-05	-0.004366625181660762
1.48485e-05	-0.00432676799402638
1.48488e-05	-0.004279410670260693
1.48490e-05	-0.004231382314403285
1.48493e-05	-0.004194026594949798
1.48495e-05	-0.0041693938893391175
1.48498e-05	-0.004147457293078237
1.48500e-05	-0.004122807077392082
1.48503e-05	-0.004083412218939199
1.48505e-05	-0.004028133610455023
1.48508e-05	-0.003968146474598955
1.48510e-05	-0.003907885204258822
1.48513e-05	-0.003854612219456492
1.48515e-05	-0.0038097677423538914
1.48518e-05	-0.0037672281777300794
1.48520e-05	-0.003723761047881253
1.48523e-05	-0.0036719872145553165
1.48525e-05	-0.003611351910558812
1.48528e-05	-0.0035490116509369943
1.48530e-05	-0.003487901843122691
1.48533e-05	-0.003432728101902866
1.48535e-05	-0.0033845489964665723
1.48538e-05	-0.0033396851199146878
1.48540e-05	-0.0032962683912609713
1.48543e-05	-0.003249834017045548
1.48545e-05	-0.003200191287245026
1.48548e-05	-0.0031519803775254206
1.48550e-05	-0.0031071967055444805
1.48553e-05	-0.0030689436034173024
1.48555e-05	-0.0030377445092446493
1.48558e-05	-0.0030105613425637206
1.48560e-05	-0.002985418802384648
1.48563e-05	-0.0029591880479604695
1.48565e-05	-0.0029316858641518138
1.48568e-05	-0.002905775562720636
1.48570e-05	-0.002884895700053139
1.48573e-05	-0.002864445136883123
1.48575e-05	-0.0028508160214472276
1.48578e-05	-0.0028404178521644276
1.48580e-05	-0.0028313920255818342
1.48583e-05	-0.002822466540467578
1.48585e-05	-0.0028135410553533817
1.48588e-05	-0.0028079098907393784
1.48590e-05	-0.0028025684453330886
1.48593e-05	-0.0027972269999267984
1.48595e-05	-0.002798515428029734
1.48598e-05	-0.00280038692074343
1.48600e-05	-0.0028041243933873503
1.48603e-05	-0.00280802596974456
1.48605e-05	-0.002811927546101796
1.48608e-05	-0.0028172566473291818
1.48610e-05	-0.0028245638707726207
1.48613e-05	-0.002831871094216109
1.48615e-05	-0.002839178317659597
1.48618e-05	-0.0028498361563086124
1.48620e-05	-0.00286078866500652
1.48623e-05	-0.002871741173704427
1.48625e-05	-0.002882444218591317
1.48628e-05	-0.0028931253243689383
1.48630e-05	-0.0029038064301465595
1.48633e-05	-0.0029159973020364206
1.48635e-05	-0.0029283209503948053
1.48638e-05	-0.00294064459875319
1.48640e-05	-0.002952196956655708
1.48643e-05	-0.002963681483374364
1.48645e-05	-0.0029751660100930206
1.48648e-05	-0.002985043503354095
1.48650e-05	-0.002994779665964447
1.48653e-05	-0.003003969890186151
1.48655e-05	-0.00301311210182448
1.48658e-05	-0.003022980768915734
1.48660e-05	-0.003032913324174008
1.48663e-05	-0.003044176162859807
1.48665e-05	-0.0030555559933990333
1.48668e-05	-0.0030685749944980635
1.48670e-05	-0.0030817381525471603
1.48673e-05	-0.0030949013105963465
1.48675e-05	-0.0031106066882137843
1.48678e-05	-0.003126535641478827
1.48680e-05	-0.0031424645947439774
1.48683e-05	-0.0031628096709566613
1.48685e-05	-0.0031835431233587165
1.48688e-05	-0.0032042765757606313
1.48690e-05	-0.0032250100281626865
1.48693e-05	-0.003245743480564742
1.48695e-05	-0.0032664769329666565
1.48698e-05	-0.0032920164337352604
1.48700e-05	-0.0033179786027069578
1.48703e-05	-0.0033439407716784795
1.48705e-05	-0.003369902940650177
1.48708e-05	-0.003395865109621874
1.48710e-05	-0.003421827278593396
1.48713e-05	-0.003450271519471926
1.48715e-05	-0.0034789340463086877
1.48718e-05	-0.0035075965731452556
1.48720e-05	-0.003536259099982018
1.48723e-05	-0.0035649216268187796
1.48725e-05	-0.0035935841536553475
1.48728e-05	-0.003621584901467521
1.48730e-05	-0.003648668621619716
1.48733e-05	-0.0036757523417717273
1.48735e-05	-0.003702836061923922
1.48738e-05	-0.0037299197820761165
1.48740e-05	-0.0037570035022281277
1.48743e-05	-0.0037840872223803223
1.48745e-05	-0.0038034123913824156
1.48748e-05	-0.0038220552341519123
1.48750e-05	-0.003840698076921535
1.48753e-05	-0.003859340919691158
1.48755e-05	-0.0038779837624606543
1.48758e-05	-0.003896626605230277
1.48760e-05	-0.0039152694479999
1.48763e-05	-0.003933912290769397
1.48765e-05	-0.003952555133539019
1.48768e-05	-0.003971197976308642
1.48770e-05	-0.0039830036416425105
1.48773e-05	-0.003994208011008604
1.48775e-05	-0.004005412380374772
1.48778e-05	-0.004016616749740942
1.48780e-05	-0.004027821119107035
1.48783e-05	-0.004039025488473204
1.48785e-05	-0.004050229857839373
1.48788e-05	-0.004061434227205465
1.48790e-05	-0.004072638596571635
1.48793e-05	-0.0040838429659378036
1.48795e-05	-0.00409132581799892
1.48798e-05	-0.004098481381003913
1.48800e-05	-0.004105636944008905
1.48803e-05	-0.004112792507013849
1.48805e-05	-0.0041199480700188406
1.48808e-05	-0.004127103633023833
1.48810e-05	-0.004134259196028777
1.48813e-05	-0.004141414759033769
1.48815e-05	-0.004148570322038761
1.48818e-05	-0.004155725885043705
1.48820e-05	-0.004162881448048697
1.48823e-05	-0.0041676824389594285
1.48825e-05	-0.004172276356890065
1.48828e-05	-0.004176870274820733
1.48830e-05	-0.004181464192751401
1.48833e-05	-0.0041860581106820385
1.48835e-05	-0.004190652028612706
1.48838e-05	-0.004195245946543374
1.48840e-05	-0.004199839864474011
1.48843e-05	-0.00420443378240468
1.48845e-05	-0.004209027700335348
1.48848e-05	-0.004213621618265984
1.48850e-05	-0.004217040468066829
1.48853e-05	-0.004220355976432472
1.48855e-05	-0.004222435365577313
1.48858e-05	-0.004224406044145193
1.48860e-05	-0.004221896075883767
1.48863e-05	-0.004218992056875681
1.48865e-05	-0.004216088037867613
1.48868e-05	-0.004207713221130816
1.48870e-05	-0.0041988572747687775
1.48873e-05	-0.004190001328406799
1.48875e-05	-0.004175611808178367
1.48878e-05	-0.004160735637473606
1.48880e-05	-0.004145859466768944
1.48883e-05	-0.004122893687123925
1.48885e-05	-0.004099216466348904
1.48888e-05	-0.004075539245574043
1.48890e-05	-0.004051862024799021
1.48893e-05	-0.004024554103161199
1.48895e-05	-0.003992215116781185
1.48898e-05	-0.003959876130400952
1.48900e-05	-0.00392753714402072
1.48903e-05	-0.0038951981576407064
1.48905e-05	-0.0038572662216306394
1.48908e-05	-0.003818842413339085
1.48910e-05	-0.0037804186050477907
1.48913e-05	-0.0037397304686026434
1.48915e-05	-0.003698843195685909
1.48918e-05	-0.0036569780060833057
1.48920e-05	-0.0036144468476317715
1.48923e-05	-0.003571469194376981
1.48925e-05	-0.0035283007467910733
1.48928e-05	-0.0034852026843923928
1.48930e-05	-0.0034424356011347286
1.48933e-05	-0.0034002604625277366
1.48935e-05	-0.0033588969678772234
1.48938e-05	-0.0033184927009614687
1.48940e-05	-0.0032792035614523604
1.48943e-05	-0.003241265465552838
1.48945e-05	-0.0032049548551246884
1.48948e-05	-0.003171567779357113
1.48950e-05	-0.0031384260834630365
1.48953e-05	-0.003113623350342193
1.48955e-05	-0.0030895539877893565
1.48958e-05	-0.003065484625236683
