Time(s)	Current(A)
6.25000e-06	-0.001459737269253892
6.25025e-06	-0.0014825581527638063
6.25050e-06	-0.0015067250267305368
6.25075e-06	-0.0015308919006971854
6.25100e-06	-0.0015550587746639161
6.25125e-06	-0.0015792256486305647
6.25150e-06	-0.0016033925225972135
6.25175e-06	-0.001627559396563944
6.25200e-06	-0.0016514780997477871
6.25225e-06	-0.0016747869889120659
6.25250e-06	-0.0016980958780764238
6.25275e-06	-0.0017214047672407028
6.25300e-06	-0.0017447136564049818
6.25325e-06	-0.0017680225455693397
6.25350e-06	-0.0017895026173948704
6.25375e-06	-0.001806488854612853
6.25400e-06	-0.0018234750918308931
6.25425e-06	-0.0018404613290488757
6.25450e-06	-0.0018574475662668582
6.25475e-06	-0.0018744338034848984
6.25500e-06	-0.0018895441790802903
6.25525e-06	-0.0019000451211912
6.25550e-06	-0.0019105460633020742
6.25575e-06	-0.0019210470054129487
6.25600e-06	-0.0019315479475238585
6.25625e-06	-0.0019420488896347327
6.25650e-06	-0.0019525498317456069
6.25675e-06	-0.0019630507738565167
6.25700e-06	-0.001969773404688203
6.25725e-06	-0.0019746583579019934
6.25750e-06	-0.0019795433111158005
6.25775e-06	-0.001984428264329591
6.25800e-06	-0.0019893132175433817
6.25825e-06	-0.0019941981707571883
6.25850e-06	-0.001999083123970979
6.25875e-06	-0.002003687908967608
6.25900e-06	-0.002005535694887501
6.25925e-06	-0.00889179181447953
6.25950e-06	-0.018192942945883223
6.25975e-06	-0.015885875186330254
6.26000e-06	-0.013465612239341557
6.26025e-06	-0.007826895939370228
6.26050e-06	-0.00033582086480803564
6.26075e-06	-1.2986164162571273e-05
6.26100e-06	-0.0007933997262495808
6.26125e-06	-0.004679543577108769
6.26150e-06	-0.010456407776243456
6.26175e-06	-0.010305879963297475
6.26200e-06	-0.008025480305100152
6.26225e-06	-0.0050645787733262174
6.26250e-06	-0.0015520508342265601
6.26275e-06	0.0003618058978141952
6.26300e-06	-0.00010584513714393935
6.26325e-06	-0.0021621000247974255
6.26350e-06	-0.0047313406114474765
6.26375e-06	-0.006013823465650352
6.26400e-06	-0.005250714256859988
6.26425e-06	-0.003338054451538805
6.26450e-06	-0.0012041834882048261
6.26475e-06	-2.831323010783788e-05
6.26500e-06	-0.00033679818288154977
6.26525e-06	-0.0016332812222820806
6.26550e-06	-0.0032446391101494175
6.26575e-06	-0.004044164681045934
6.26600e-06	-0.0035571851796394054
6.26625e-06	-0.002345582710767783
6.26650e-06	-0.0009913735623633573
6.26675e-06	-0.00023362163279911727
6.26700e-06	-0.00040236116751553373
6.26725e-06	-0.0011869731172945257
6.26750e-06	-0.002166122906880841
6.26775e-06	-0.002634384114772269
6.26800e-06	-0.00229479303167984
6.26825e-06	-0.0014996660341782975
6.26850e-06	-0.0006138876788896756
6.26875e-06	-0.00010066895796580078
6.26900e-06	-0.00016696632077239904
6.26925e-06	-0.0006184243757924631
6.26950e-06	-0.0011913507067335817
6.26975e-06	-0.001444125270536172
6.27000e-06	-0.0011910130975970336
6.27025e-06	-0.0006529822940295794
6.27050e-06	-5.8849859363424394e-05
6.27075e-06	0.00030100174641076573
6.27100e-06	0.00029672886434160166
6.27125e-06	4.987128376550621e-05
6.27150e-06	-0.0002746101495788192
6.27175e-06	-0.0004003198577066539
6.27200e-06	-0.00021116521288527473
6.27225e-06	0.00015419015904442806
6.27250e-06	0.0005521796794848757
6.27275e-06	0.0008006878283642144
6.27300e-06	0.0008181729808291623
6.27325e-06	0.0006805604683914064
6.27350e-06	0.0004909666995760454
6.27375e-06	0.00042229835702231686
6.27400e-06	0.0005470377301967716
6.27425e-06	0.0007780484060078396
6.27450e-06	0.001025019168453615
6.27475e-06	0.0011735044616121187
6.27500e-06	0.0011723351847400497
6.27525e-06	0.001069263612070779
6.27550e-06	0.0009291584996592273
6.27575e-06	0.000860597370181477
6.27600e-06	0.0009092450840321679
6.27625e-06	0.0010207819771028167
6.27650e-06	0.0011389049029090505
6.27675e-06	0.0011921988003357976
6.27700e-06	0.001148889777862127
6.27725e-06	0.001039168150569432
6.27750e-06	0.0009039427566000637
6.27775e-06	0.0008114967819330274
6.27800e-06	0.0007907003857743503
6.27825e-06	0.0008077939139154314
6.27850e-06	0.0008277784078219807
6.27875e-06	0.0008061925485323521
6.27900e-06	0.0007234090409044885
6.27925e-06	0.0005986149763767232
6.27950e-06	0.00045770955611408197
6.27975e-06	0.0003437359054888899
6.28000e-06	0.00027504630051129384
6.28025e-06	0.00023076186302513612
6.28050e-06	0.00018922932066276317
6.28075e-06	0.00012287046575453346
6.28100e-06	1.966496396590434e-05
6.28125e-06	-0.00010809424941043896
6.28150e-06	-0.00024391108964661492
6.28175e-06	-0.00036055249849218605
6.28200e-06	-0.00044625356184076475
6.28225e-06	-0.0005138235964589042
6.28250e-06	-0.0005765557881087649
6.28275e-06	-0.0006514532951334353
6.28300e-06	-0.0007457727779697188
6.28325e-06	-0.0008515410017652571
6.28350e-06	-0.000958152820723118
6.28375e-06	-0.0010482786924469248
6.28400e-06	-0.0011142793447139953
6.28425e-06	-0.0011640180230675598
6.28450e-06	-0.0012060774799541292
6.28475e-06	-0.0012518216647910722
6.28500e-06	-0.0013064602091812719
6.28525e-06	-0.0013653146070354352
6.28550e-06	-0.0014219082374769014
6.28575e-06	-0.0014655532470756122
6.28600e-06	-0.0014916324566579104
6.28625e-06	-0.0015047092936047986
6.28650e-06	-0.0015111075379000895
6.28675e-06	-0.001518953046057676
6.28700e-06	-0.0015297748839822665
6.28725e-06	-0.0015402964257342309
6.28750e-06	-0.0015485736715314478
6.28775e-06	-0.0015501765749645925
6.28800e-06	-0.001537637680868254
6.28825e-06	-0.0015158704472513628
6.28850e-06	-0.0014892014432506394
6.28875e-06	-0.001463271666944817
6.28900e-06	-0.0014384718855590078
6.28925e-06	-0.0014128488089807756
6.28950e-06	-0.0013859672306023962
6.28975e-06	-0.0013537924845148925
6.29000e-06	-0.001313526520170612
6.29025e-06	-0.0012704040564438812
6.29050e-06	-0.0012229151034569851
6.29075e-06	-0.001176539077987465
6.29100e-06	-0.0011318642907827523
6.29125e-06	-0.0010875873048982983
6.29150e-06	-0.0010439184042816835
6.29175e-06	-0.0009981113647305152
6.29200e-06	-0.000949035932841592
6.29225e-06	-0.0008996128017428533
6.29250e-06	-0.0008496581722396627
6.29275e-06	-0.0008021059809512468
6.29300e-06	-0.0007582261939791416
6.29325e-06	-0.0007165642857586821
6.29350e-06	-0.0006782926613964562
6.29375e-06	-0.0006409140470174621
6.29400e-06	-0.0006049005015490125
6.29425e-06	-0.0005706398393647245
6.29450e-06	-0.0005390586617556832
6.29475e-06	-0.000509365285175161
6.29500e-06	-0.00048255763052605085
6.29525e-06	-0.0004570245871527015
6.29550e-06	-0.00043343993434420664
6.29575e-06	-0.00041031272082654827
6.29600e-06	-0.0003878847561038106
6.29625e-06	-0.00036646559559435553
6.29650e-06	-0.0003465885088515071
6.29675e-06	-0.00032781741497859077
6.29700e-06	-0.0003107369589601429
6.29725e-06	-0.0002943910921918204
6.29750e-06	-0.00027916812994461263
6.29775e-06	-0.0002641806579761249
6.29800e-06	-0.00024955316010001236
6.29825e-06	-0.00023551933137504148
6.29850e-06	-0.00022239299452197714
6.29875e-06	-0.0002099339376742861
6.29900e-06	-0.00019849489539199534
6.29925e-06	-0.00018750325010987904
6.29950e-06	-0.00017719550282127198
6.29975e-06	-0.00016703532541224053
6.30000e-06	-0.0001571007256098432
6.30025e-06	-0.00014755086927239566
6.30050e-06	-0.00013858913776262447
6.30075e-06	-0.00013007103667466086
6.30100e-06	-0.0001222310759300564
6.30125e-06	-0.00011470979390141602
6.30150e-06	-0.00010767564910053735
6.30175e-06	-0.00010078518674809662
6.30200e-06	-9.411435961474841e-05
6.30225e-06	-8.766125596238395e-05
6.30250e-06	-8.17156259674001e-05
6.30275e-06	-7.622685526440822e-05
6.30300e-06	-7.118338318797202e-05
6.30325e-06	-6.653097050211979e-05
6.30350e-06	-6.22652893171777e-05
6.30375e-06	-5.823082902777391e-05
6.30400e-06	-5.435816471690348e-05
6.30425e-06	-5.0769457028461755e-05
6.30450e-06	-4.692378698646168e-05
6.30475e-06	-4.1952232832598485e-05
6.30500e-06	-3.5239393321619685e-05
6.30525e-06	-2.6672638765313055e-05
6.30550e-06	-1.6345699653104404e-05
6.30575e-06	-4.313194498815506e-06
6.30600e-06	9.313757550687884e-06
6.30625e-06	2.4420350225786902e-05
6.30650e-06	4.1192096247842746e-05
6.30675e-06	6.0054312844848895e-05
6.30700e-06	8.127347136850764e-05
6.30725e-06	0.00010480110399141436
6.30750e-06	0.00013045947844025544
6.30775e-06	0.00015809537296203392
6.30800e-06	0.00018752018960726687
6.30825e-06	0.00021854301074799136
6.30850e-06	0.0002511610694932089
6.30875e-06	0.00028552180093606
6.30900e-06	0.00032167310654373376
6.30925e-06	0.0003594656136611755
6.30950e-06	0.00039888002606227983
6.30975e-06	0.0004393908991397171
6.31000e-06	0.0004806642113198771
6.31025e-06	0.000523102999736983
6.31050e-06	0.0005655417881540888
6.31075e-06	0.0006085089027332313
6.31100e-06	0.000652283624877239
6.31125e-06	0.0006961474788258291
6.31150e-06	0.0007401475810328937
6.31175e-06	0.0007838256508592428
6.31200e-06	0.0008270114569941049
6.31225e-06	0.000869487650120192
6.31250e-06	0.0009108791177957587
6.31275e-06	0.0009515893671117906
6.31300e-06	0.000990695397747092
6.31325e-06	0.0010282643827563504
6.31350e-06	0.0010640126327327336
6.31375e-06	0.001097662678655196
6.31400e-06	0.0011289282008225888
6.31425e-06	0.001157494892570933
6.31450e-06	0.0011823161537582987
6.31475e-06	0.0012040931531052106
6.31500e-06	0.0012230199143938578
6.31525e-06	0.001237589757581786
6.31550e-06	0.001249257913955481
6.31575e-06	0.001256490506862284
6.31600e-06	0.0012607709080015661
6.31625e-06	0.0012605385430191987
6.31650e-06	0.0012572629668594843
6.31675e-06	0.0012493354908966964
6.31700e-06	0.0012384263120678361
6.31725e-06	0.0012229592559945877
6.31750e-06	0.0012047184328996914
6.31775e-06	0.0011822375865169377
6.31800e-06	0.0011571913923681175
6.31825e-06	0.0011282237678379213
6.31850e-06	0.0010968738242029075
6.31875e-06	0.0010618822306371156
6.31900e-06	0.0010247869354240062
6.31925e-06	0.0009844758892463483
6.31950e-06	0.0009420757588532632
6.31975e-06	0.0008964822219285379
6.32000e-06	0.0008508886850039671
6.32025e-06	0.0008035169777885853
6.32050e-06	0.0007534271318889232
6.32075e-06	0.0007033372859894307
6.32100e-06	0.0006523657135361627
6.32125e-06	0.0006000463201979707
6.32150e-06	0.000547726926859956
6.32175e-06	0.0004955785075979259
6.32200e-06	0.00044369144195989345
6.32225e-06	0.00039180437632203673
6.32250e-06	0.00034057374846865055
6.32275e-06	0.00029087054472805947
6.32300e-06	0.00024262279085456506
6.32325e-06	0.00019616400533777083
6.32350e-06	0.00015183345637388476
6.32375e-06	0.00010997094844847231
6.32400e-06	7.091539740937263e-05
6.32425e-06	3.478452801305562e-05
6.32450e-06	9.096528509447448e-07
6.32475e-06	-3.20825414167013e-05
6.32500e-06	-6.514988393985939e-05
6.32525e-06	-9.828910911118017e-05
6.32550e-06	-0.00013130947113641886
6.32575e-06	-0.00016385155252039924
6.32600e-06	-0.00019566252669876933
6.32625e-06	-0.00022706107732929949
6.32650e-06	-0.00025782919092814786
6.32675e-06	-0.00028859730452699626
6.32700e-06	-0.0003201960181979522
6.32725e-06	-0.0003530644000204339
6.32750e-06	-0.0003859327818429157
6.32775e-06	-0.0004188011636655088
6.32800e-06	-0.0004516695454879905
6.32825e-06	-0.0004845379273105836
6.32850e-06	-0.0005180621675915505
6.32875e-06	-0.0005525889632836714
6.32900e-06	-0.0005871157589759094
6.32925e-06	-0.0006216425546680304
6.32950e-06	-0.0006561693503601513
6.32975e-06	-0.0006906961460523893
6.33000e-06	-0.0007252766118896767
6.33025e-06	-0.0007599391187432175
6.33050e-06	-0.0007946016255968757
6.33075e-06	-0.0008292641324504163
6.33100e-06	-0.0008639266393039571
6.33125e-06	-0.0008985891461576153
6.33150e-06	-0.0009321449561254121
6.33175e-06	-0.0009640090520703234
6.33200e-06	-0.0009958731480153426
6.33225e-06	-0.0010277372439602538
6.33250e-06	-0.001059601339905273
6.33275e-06	-0.0010914654358501843
6.33300e-06	-0.0011215299609700373
6.33325e-06	-0.0011488436342180235
6.33350e-06	-0.0011761573074659173
6.33375e-06	-0.001201521145759373
6.33400e-06	-0.0012239044361024355
6.33425e-06	-0.001246287726445422
6.33450e-06	-0.0012661408199167521
6.33475e-06	-0.0012821262152104892
6.33500e-06	-0.001295499302799202
6.33525e-06	-0.0013048791763171027
6.33550e-06	-0.001311650172047105
6.33575e-06	-0.0013144331967306997
6.33600e-06	-0.0013146251607794252
6.33625e-06	-0.0013108563893582481
6.33650e-06	-0.0013043158996572006
6.33675e-06	-0.0012935385184083918
6.33700e-06	-0.0012799348394612266
6.33725e-06	-0.0012620108380208207
6.33750e-06	-0.001241500679115447
6.33775e-06	-0.0012170372798020568
6.33800e-06	-0.0011896804423555862
6.33825e-06	-0.0011579006505061237
6.33850e-06	-0.0011261208586567687
6.33875e-06	-0.0010911650556860893
6.33900e-06	-0.0010513543528603685
6.33925e-06	-0.0010115436500347825
6.33950e-06	-0.0009693026322845909
6.33975e-06	-0.0009233465974502489
6.34000e-06	-0.0008773905626160627
6.34025e-06	-0.0008298359025227212
6.34050e-06	-0.0007798375590660153
6.34075e-06	-0.0007298392156094788
6.34100e-06	-0.0006790795917019724
6.34125e-06	-0.0006271562626913666
6.34150e-06	-0.0005751689507648225
6.34175e-06	-0.0005230838335605312
6.34200e-06	-0.00047141912865701803
6.34225e-06	-0.0004203970725160811
6.34250e-06	-0.0003702309303092988
6.34275e-06	-0.00032137315141644645
6.34300e-06	-0.00027344036245540506
6.34325e-06	-0.00022771621506177805
6.34350e-06	-0.00018413736561769805
6.34375e-06	-0.000143047286020269
6.34400e-06	-0.00010478943057258745
6.34425e-06	-6.941746587061313e-05
6.34450e-06	-3.595420623717526e-05
6.34475e-06	-2.516841122631087e-06
6.34500e-06	3.2197439361292625e-05
6.34525e-06	6.828898035231027e-05
6.34550e-06	0.00010540024484865346
6.34575e-06	0.0001431737169162624
6.34600e-06	0.00018125192622906778
6.34625e-06	0.00021945895225946143
6.34650e-06	0.0002582645621481109
6.34675e-06	0.0002987057456880128
6.34700e-06	0.00034145607983126044
6.34725e-06	0.00038676046566209075
6.34750e-06	0.0004337748515897186
6.34775e-06	0.0004817977712510638
6.34800e-06	0.0005313623512184732
6.34825e-06	0.0005816986625251472
6.34850e-06	0.0006332146543246806
6.34875e-06	0.0006863755177149354
6.34900e-06	0.0007420507573277828
6.34925e-06	0.0007977259969404417
6.34950e-06	0.000854538718287726
6.34975e-06	0.0009130902118542093
6.35000e-06	0.0009719008368057593
6.35025e-06	0.001031107574011346
6.35050e-06	0.0010904367753695762
6.35075e-06	0.0011501280340424891
6.35100e-06	0.0012101864863632314
6.35125e-06	0.0012703491757349095
6.35150e-06	0.0013302406653797024
6.35175e-06	0.0013894853507955723
6.35200e-06	0.0014477080010628573
6.35225e-06	0.0015045779537996064
6.35250e-06	0.001559923156760395
6.35275e-06	0.0016137111195305886
6.35300e-06	0.0016658198779270733
6.35325e-06	0.001715942413980284
6.35350e-06	0.0017637012388403513
6.35375e-06	0.0018087188879950767
6.35400e-06	0.001850618010712092
6.35425e-06	0.0018888606769558649
6.35450e-06	0.0019223683196930037
6.35475e-06	0.0019496862689850534
6.35500e-06	0.0019698647097396603
6.35525e-06	0.0019827333646084046
6.35550e-06	0.001988400261740126
6.35575e-06	0.001986973948888843
6.35600e-06	0.001978562692303811
6.35625e-06	0.0019631741626802636
6.35650e-06	0.001938861299115873
6.35675e-06	0.0019074357978958382
6.35700e-06	0.0018697005844154823
6.35725e-06	0.0018223202469238508
6.35750e-06	0.00176922589780082
6.35775e-06	0.001707397021886604
6.35800e-06	0.0016404754557600126
6.35825e-06	0.0015657691243989274
6.35850e-06	0.0014861855200328988
6.35875e-06	0.0013991464405154778
6.35900e-06	0.0013076129265885094
6.35925e-06	0.0012092091505239942
6.35950e-06	0.0011072294902544312
6.35975e-06	0.0009997836779359571
6.36000e-06	0.0008896963921069045
6.36025e-06	0.0007755713089058842
6.36050e-06	0.0006594848771247794
6.36075e-06	0.0005404002974875052
6.36100e-06	0.00042007759068534833
6.36125e-06	0.0002978622634994592
6.36150e-06	0.00017564693631357014
6.36175e-06	5.356590878237845e-05
6.36200e-06	-6.776666027060435e-05
6.36225e-06	-0.00018746487863365024
6.36250e-06	-0.00030491458094547514
6.36275e-06	-0.00041955955690877616
6.36300e-06	-0.0005307659007412467
6.36325e-06	-0.0006377797650199208
6.36350e-06	-0.0007398045257821716
6.36375e-06	-0.0008360436274653197
6.36400e-06	-0.0009257006958716739
6.36425e-06	-0.0010080070154857388
6.36450e-06	-0.0010823343670686887
6.36475e-06	-0.001148310823522212
6.36500e-06	-0.0012057552407911817
6.36525e-06	-0.0012545231127269315
6.36550e-06	-0.0012944591169528079
6.36575e-06	-0.0013254080718449928
6.36600e-06	-0.0013472148418187007
6.36625e-06	-0.001359741718426632
6.36650e-06	-0.0013629390793870402
6.36675e-06	-0.0013569177838146662
6.36700e-06	-0.0013419081745662342
6.36725e-06	-0.0013181635537031268
6.36750e-06	-0.0012859304402031183
6.36775e-06	-0.0012454554964309473
6.36800e-06	-0.001196985357779362
6.36825e-06	-0.0011407776222303015
6.36850e-06	-0.001077144933965407
6.36875e-06	-0.0010065005587620328
6.36900e-06	-0.000929332472619562
6.36925e-06	-0.000846143157002614
6.36950e-06	-0.0007574306948653139
6.36975e-06	-0.0006636932382214377
6.37000e-06	-0.0005654289525698007
6.37025e-06	-0.00046314274551052895
6.37050e-06	-0.00035737410134030896
6.37075e-06	-0.0002487253685926876
6.37100e-06	-0.0001378457736917923
6.37125e-06	-2.539347332070963e-05
6.37150e-06	8.797608634693424e-05
6.37175e-06	0.00020160751158912368
6.37200e-06	0.00031484545234074295
6.37225e-06	0.00042703031191863904
6.37250e-06	0.0005374809530859561
6.37275e-06	0.0006454769060374096
6.37300e-06	0.0007502683423913548
6.37325e-06	0.000851099912494081
6.37350e-06	0.0009472179774230901
6.37375e-06	0.0010378690850473076
6.37400e-06	0.00112229983059134
6.37425e-06	0.0011998011558382686
6.37450e-06	0.0012698605706736804
6.37475e-06	0.0013322600978708382
6.37500e-06	0.0013869188303120045
6.37525e-06	0.0014337106656692232
6.37550e-06	0.001472469522682731
6.37575e-06	0.0015030295581930334
6.37600e-06	0.0015252248777314578
6.37625e-06	0.0015389175161644572
6.37650e-06	0.0015440925084387323
6.37675e-06	0.0015409195179693395
6.37700e-06	0.0015296539765468585
6.37725e-06	0.0015105231080962472
6.37750e-06	0.0014837288905661433
6.37775e-06	0.0014494736537858277
6.37800e-06	0.0014065971527465906
6.37825e-06	0.0013573236692914095
6.37850e-06	0.001302915346776237
6.37875e-06	0.0012406578296468432
6.37900e-06	0.0011739763640533825
6.37925e-06	0.0011005323822342787
6.37950e-06	0.001023353980378849
6.37975e-06	0.0009404670861453241
6.38000e-06	0.0008545355880473786
6.38025e-06	0.0007639500612699472
6.38050e-06	0.0006711177086198365
6.38075e-06	0.00057485082309862
6.38100e-06	0.00047712766922232126
6.38125e-06	0.0003771784409554463
6.38150e-06	0.00027722921268823273
6.38175e-06	0.00017702990085402055
6.38200e-06	7.670332176954787e-05
6.38225e-06	-2.274346511133578e-05
6.38250e-06	-0.00012069679472755053
6.38275e-06	-0.00021649772911937808
6.38300e-06	-0.00030946631188553844
6.38325e-06	-0.00039892963226335914
6.38350e-06	-0.00048422100815044994
6.38375e-06	-0.0005646738108840864
6.38400e-06	-0.0006396214626083904
6.38425e-06	-0.0007086166901926472
6.38450e-06	-0.0007720142092295005
6.38475e-06	-0.0008309440812500426
6.38500e-06	-0.0008862289167418316
6.38525e-06	-0.0009370343188519141
6.38550e-06	-0.0009842439914817473
6.38575e-06	-0.00102787577720264
6.38600e-06	-0.0010660383495120149
6.38625e-06	-0.0011005143364668049
6.38650e-06	-0.0011293549518809854
6.38675e-06	-0.0011555036578890813
6.38700e-06	-0.0011775374694359434
6.38725e-06	-0.001197073288498678
6.38750e-06	-0.0012127906375138543
6.38775e-06	-0.0012258088259561024
6.38800e-06	-0.0012347010356908701
6.38825e-06	-0.0012404651380434207
6.38850e-06	-0.0012414475669443217
6.38875e-06	-0.0012424299958452192
6.38900e-06	-0.0012416128922858032
6.38925e-06	-0.0012364156391062118
6.38950e-06	-0.00122872772647319
6.38975e-06	-0.0012210398138401684
6.39000e-06	-0.0012104562113389795
6.39025e-06	-0.0011954462124024394
6.39050e-06	-0.0011804362134658992
6.39075e-06	-0.0011654262145293082
6.39100e-06	-0.001150416215592768
6.39125e-06	-0.001135406216656228
6.39150e-06	-0.0011167410210822688
6.39175e-06	-0.0010976491622997115
6.39200e-06	-0.0010785573035170895
6.39225e-06	-0.001059465444734532
6.39250e-06	-0.0010403735859519747
6.39275e-06	-0.0010215271765546988
6.39300e-06	-0.0010030559648940454
6.39325e-06	-0.000984584753233392
6.39350e-06	-0.0009672082759520875
6.39375e-06	-0.0009515052266189422
6.39400e-06	-0.0009358021772857971
