Time(s)	Current(A)
1.25000e-05	-0.0015712771813062426
1.25003e-05	-0.0016167597999983945
1.25005e-05	-0.0016580879377386072
1.25008e-05	-0.001699287539882396
1.25010e-05	-0.001738018723428681
1.25012e-05	-0.0017767499069747032
1.25015e-05	-0.001815221278561414
1.25018e-05	-0.0018487031788312007
1.25020e-05	-0.0018821850791009872
1.25023e-05	-0.001915499419386174
1.25025e-05	-0.0019455959103570901
1.25028e-05	-0.0019756924013280062
1.25030e-05	-0.0020057888922987185
1.25033e-05	-0.002035885383269635
1.25035e-05	-0.0020642601393469216
1.25038e-05	-0.002091223324865719
1.25040e-05	-0.002118186510384699
1.25043e-05	-0.002145149695903679
1.25045e-05	-0.00217195948747168
1.25048e-05	-0.0021958234765472274
1.25050e-05	-0.0022196874656227753
1.25053e-05	-0.0022435514546981614
1.25055e-05	-0.0022674154437737092
1.25058e-05	-0.002291279432849257
1.25060e-05	-0.002315143421924643
1.25063e-05	-0.0023390074110001906
1.25065e-05	-0.0023628714000757385
1.25068e-05	-0.0023867353891511246
1.25070e-05	-0.002407721015209151
1.25073e-05	-0.0024263468049722627
1.25075e-05	-0.0024449725947352486
1.25078e-05	-0.0024635983844983602
1.25080e-05	-0.0024822241742614723
1.25083e-05	-0.002500849964024458
1.25085e-05	-0.0025194757537875694
1.25088e-05	-0.0025381015435506815
1.25090e-05	-0.002556727333313667
1.25093e-05	-0.0025751126598371975
1.25095e-05	-0.0025888800910168802
1.25097e-05	-0.0026026475221964693
1.25100e-05	-0.0026161698823984423
1.25103e-05	-0.002624985859499987
1.25105e-05	-0.002633801836601532
1.25108e-05	-0.0026421088086691275
1.25110e-05	-0.002640640764894759
1.25113e-05	-0.002639172721120391
1.25115e-05	-0.0026377046773460324
1.25118e-05	-0.002636236633571664
1.25120e-05	-0.002634099542455738
1.25123e-05	-0.002619113956870562
1.25125e-05	-0.0026041283712852853
1.25128e-05	-0.002589142785700008
1.25130e-05	-0.0025741572001148324
1.25133e-05	-0.002558640189375158
1.25135e-05	-0.0025329176031357804
1.25138e-05	-0.0025071950168965773
1.25140e-05	-0.0024811337818164345
1.25143e-05	-0.002448569079062215
1.25145e-05	-0.002416004376308216
1.25148e-05	-0.0023831808968247242
1.25150e-05	-0.002345387826746828
1.25153e-05	-0.002307436136026013
1.25155e-05	-0.002266438268553543
1.25158e-05	-0.0022253252485672204
1.25160e-05	-0.002182000820888333
1.25163e-05	-0.002138590234813385
1.25165e-05	-0.0020935250488269257
1.25168e-05	-0.0020484120905369394
1.25170e-05	-0.002002381705117213
1.25173e-05	-0.0019563485078672766
1.25175e-05	-0.001910277295412207
1.25178e-05	-0.0018645423522052793
1.25180e-05	-0.0018194112655740028
1.25182e-05	-0.0017751149209769455
1.25185e-05	-0.0017318440132891495
1.25188e-05	-0.0016898684784633841
1.25190e-05	-0.0016501976874520805
1.25193e-05	-0.001610800234570876
1.25195e-05	-0.0015766520118040595
1.25198e-05	-0.0015425037890372429
1.25200e-05	-0.0015086448419462627
1.25203e-05	-0.0014803411922041064
1.25205e-05	-0.001452165604618294
1.25208e-05	-0.0014264493436115767
1.25210e-05	-0.0014007330826046847
1.25213e-05	-0.0013752535294289914
1.25215e-05	-0.0013543197521282853
1.25218e-05	-0.0013333859748274374
1.25220e-05	-0.0013124521975265895
1.25223e-05	-0.0012915184202258834
1.25225e-05	-0.001272896376621085
1.25228e-05	-0.0012561696162204188
1.25230e-05	-0.001239442855819866
1.25233e-05	-0.0012227160954191999
1.25235e-05	-0.0012061946365244391
1.25238e-05	-0.001193615821302738
1.25240e-05	-0.0011810370060809515
1.25243e-05	-0.0011684581908591649
1.25245e-05	-0.0011558793756374637
1.25248e-05	-0.001143300560415677
1.25250e-05	-0.0011307217451938906
1.25253e-05	-0.0011181429299721895
1.25255e-05	-0.0011074805589149563
1.25258e-05	-0.0010983893915146757
1.25260e-05	-0.0010892982241144566
1.25263e-05	-0.001080207056714176
1.25265e-05	-0.0010711158893138954
1.25267e-05	-0.0010620247219136764
1.25270e-05	-0.0010529335545133957
1.25273e-05	-0.0010439466212490717
1.25275e-05	-0.001036961417368669
1.25278e-05	-0.0010299762134883136
1.25280e-05	-0.0010229910096079108
1.25283e-05	-0.001016005805727508
1.25285e-05	-0.001009768321272482
1.25288e-05	-0.0010041438572838072
1.25290e-05	-0.0009985193932951322
1.25293e-05	-0.0009928949293064953
1.25295e-05	-0.000987318178721643
1.25298e-05	-0.0009826577241429297
1.25300e-05	-0.0009781188552917975
1.25303e-05	-0.0009759149386266235
1.25305e-05	-0.0009740267276881492
1.25308e-05	-0.000978201381128849
1.25310e-05	-0.0009827065283336107
1.25313e-05	-0.0009935585318037107
1.25315e-05	-0.0010047088139913105
1.25318e-05	-0.0010215872894263887
1.25320e-05	-0.0010387817529235754
1.25323e-05	-0.001062044502815146
1.25325e-05	-0.0010857072211484875
1.25328e-05	-0.0011170509988124933
1.25330e-05	-0.0011487663961379263
1.25333e-05	-0.0011876184381908212
1.25335e-05	-0.0012267843046945878
1.25338e-05	-0.0012719769072504804
1.25340e-05	-0.0013174568177767825
1.25343e-05	-0.0013684542375252378
1.25345e-05	-0.001419818776854172
1.25348e-05	-0.0014782335406251694
1.25350e-05	-0.001536648304396167
1.25352e-05	-0.00159537810262641
1.25355e-05	-0.001660157874118295
1.25358e-05	-0.0017249376456101803
1.25360e-05	-0.0017899017609974252
1.25363e-05	-0.0018584060466851626
1.25365e-05	-0.0019269103323733643
1.25368e-05	-0.0019954974748613652
1.25370e-05	-0.0020656758128769622
1.25373e-05	-0.0021358541508930354
1.25375e-05	-0.0022059360492792763
1.25378e-05	-0.0022741659052483622
1.25380e-05	-0.0023423957612179105
1.25383e-05	-0.0024103794860124155
1.25385e-05	-0.002473636467484161
1.25388e-05	-0.0025368934489563354
1.25390e-05	-0.002599824918828505
1.25393e-05	-0.002656505210719219
1.25395e-05	-0.002712712166336044
1.25398e-05	-0.0027598290947594886
1.25400e-05	-0.0028069460231826136
1.25403e-05	-0.002853379853567198
1.25405e-05	-0.0028866953575369864
1.25408e-05	-0.002920010861506549
1.25410e-05	-0.0029525985086322664
1.25413e-05	-0.0029712082739284896
1.25415e-05	-0.0029898180392245867
1.25418e-05	-0.0030076633247407753
1.25420e-05	-0.003010827415577824
1.25423e-05	-0.0030139915064148516
1.25425e-05	-0.003016414906630916
1.25428e-05	-0.003004613963067481
1.25430e-05	-0.0029928130195041257
1.25433e-05	-0.0029803301725455384
1.25435e-05	-0.002954751941305226
1.25437e-05	-0.002929173710065087
1.25440e-05	-0.0029030751250620494
1.25443e-05	-0.002866983581327976
1.25445e-05	-0.0028305309997486757
1.25448e-05	-0.002787144988364542
1.25450e-05	-0.0027435221667150463
1.25453e-05	-0.002695211471464668
1.25455e-05	-0.0026440828656856905
1.25458e-05	-0.002590405268770824
1.25460e-05	-0.002534448752503259
1.25463e-05	-0.002476507847167825
1.25465e-05	-0.002416923112259367
1.25468e-05	-0.002356060361643899
1.25470e-05	-0.002294281381923157
1.25473e-05	-0.0022319428465945876
1.25475e-05	-0.002169401032638976
1.25478e-05	-0.0021070130907402127
1.25480e-05	-0.0020451366417078296
1.25483e-05	-0.001984144059816054
1.25485e-05	-0.0019244368993711833
1.25488e-05	-0.0018664329300432543
1.25490e-05	-0.0018105466618745006
1.25493e-05	-0.0017571895238984428
1.25495e-05	-0.0017067732598218329
1.25498e-05	-0.0016598096429873864
1.25500e-05	-0.0016183314458973396
1.25503e-05	-0.0015772660692706447
1.25505e-05	-0.0015441285643279295
1.25508e-05	-0.001511417440591569
1.25510e-05	-0.001486894611256386
1.25513e-05	-0.0014628153654204666
1.25515e-05	-0.001447254769636183
1.25518e-05	-0.001432153928255662
1.25520e-05	-0.0014258822856228583
1.25522e-05	-0.0014200650935216387
1.25525e-05	-0.0014229752437366783
1.25528e-05	-0.0014263150277770593
1.25530e-05	-0.0014379055700488319
1.25533e-05	-0.001449903202527742
1.25535e-05	-0.001469718661909531
1.25538e-05	-0.0014900068919338023
1.25540e-05	-0.0015193742866789531
1.25543e-05	-0.001548741681424303
1.25545e-05	-0.0015785933025232756
1.25548e-05	-0.0016177440856942667
1.25550e-05	-0.001656894868865523
1.25553e-05	-0.001696422122296554
1.25555e-05	-0.0017431791721548072
1.25558e-05	-0.0017899362220133773
1.25560e-05	-0.0018369563162819356
1.25563e-05	-0.0018890279584121961
1.25565e-05	-0.0019410996005428094
1.25568e-05	-0.0019932960656545468
1.25570e-05	-0.002047889651706634
1.25573e-05	-0.0021024832377590915
1.25575e-05	-0.0021570595302875936
1.25578e-05	-0.0022113037151537734
1.25580e-05	-0.002265547900020321
1.25583e-05	-0.0023196670045388078
1.25585e-05	-0.0023713840455987854
1.25588e-05	-0.0024228547941501917
1.25590e-05	-0.0024695957010841354
1.25593e-05	-0.002516336608017762
1.25595e-05	-0.002562354878433315
1.25598e-05	-0.002594495518975226
1.25600e-05	-0.0026266361595169195
1.25603e-05	-0.0026587768000588307
1.25605e-05	-0.002690917440600742
1.25607e-05	-0.0027230580811424348
1.25610e-05	-0.002755198721684346
1.25613e-05	-0.0027863434672867416
1.25615e-05	-0.002798362883604097
1.25618e-05	-0.002810382299921371
1.25620e-05	-0.0028224017162387263
1.25623e-05	-0.0028344211325560813
1.25625e-05	-0.002846440548873355
1.25628e-05	-0.0028584599651907106
1.25630e-05	-0.002869561255568898
1.25633e-05	-0.0028630307052604116
1.25635e-05	-0.0028565001549518804
1.25638e-05	-0.0028499696046433492
1.25640e-05	-0.0028434390543348623
1.25643e-05	-0.0028369085040263315
1.25645e-05	-0.0028303779537178003
1.25648e-05	-0.0028238474034093133
1.25650e-05	-0.0028166695602835044
1.25653e-05	-0.002797061000032399
1.25655e-05	-0.0027774524397814267
1.25658e-05	-0.0027578438795303212
1.25660e-05	-0.0027382353192792162
1.25663e-05	-0.0027186267590282435
1.25665e-05	-0.0026990181987771385
1.25668e-05	-0.002679409638526033
1.25670e-05	-0.002659610128788232
1.25673e-05	-0.002636143593875646
1.25675e-05	-0.0026126770589630596
1.25678e-05	-0.0025892098748712578
1.25680e-05	-0.0025657302238324122
1.25683e-05	-0.002542250572793567
1.25685e-05	-0.002518859198625922
1.25688e-05	-0.00249716310792768
1.25690e-05	-0.002475467017229438
1.25692e-05	-0.002453936286730815
1.25695e-05	-0.0024355811605485766
1.25698e-05	-0.0024172260343663385
1.25700e-05	-0.0023989980647535817
1.25703e-05	-0.0023832120306986346
1.25705e-05	-0.002367385399884895
1.25708e-05	-0.0023507791422773556
1.25710e-05	-0.0023341728846699287
1.25713e-05	-0.002317533758355215
1.25715e-05	-0.0023002634160118316
1.25718e-05	-0.0022829930736685653
1.25720e-05	-0.002265722731325182
1.25723e-05	-0.0022484523889817983
1.25725e-05	-0.002229968926992027
1.25728e-05	-0.002210490884485518
1.25730e-05	-0.0021910128419790086
1.25733e-05	-0.0021715347994726315
1.25735e-05	-0.0021519153767101873
1.25738e-05	-0.002129580864387046
1.25740e-05	-0.0021072463520640564
1.25743e-05	-0.0020849118397409153
1.25745e-05	-0.002062577327417774
1.25748e-05	-0.0020402428150947845
1.25750e-05	-0.0020179083027716434
1.25753e-05	-0.001994339816709828
1.25755e-05	-0.001969759652828812
1.25758e-05	-0.0019451794889476294
1.25760e-05	-0.0019205993250664467
1.25763e-05	-0.0018960191611854305
1.25765e-05	-0.0018714389973042479
1.25768e-05	-0.0018468491533519316
1.25770e-05	-0.0018220734117302478
1.25773e-05	-0.0017972976701083959
1.25775e-05	-0.001772581399463238
1.25777e-05	-0.0017490072191832288
1.25780e-05	-0.00172543303890306
1.25783e-05	-0.0017019545434371114
1.25785e-05	-0.0016803135947963078
1.25788e-05	-0.001658672646155651
1.25790e-05	-0.0016371701033255101
1.25793e-05	-0.0016183255283252042
1.25795e-05	-0.0015994809533250258
1.25798e-05	-0.0015807851297113817
1.25800e-05	-0.0015649459520619136
1.25803e-05	-0.0015490880999420038
1.25805e-05	-0.0015328716202344945
1.25808e-05	-0.001516522297876285
1.25810e-05	-0.0014976218435216301
1.25813e-05	-0.0014787213891668473
1.25815e-05	-0.001459722476580693
1.25818e-05	-0.0014388327560117802
1.25820e-05	-0.001417943035442726
1.25823e-05	-0.0013968065729337525
1.25825e-05	-0.0013709316378433861
1.25828e-05	-0.0013450567027528443
1.25830e-05	-0.0013191817676623024
1.25833e-05	-0.0012933068325719358
1.25835e-05	-0.0012671406794560365
1.25838e-05	-0.0012353819277358465
1.25840e-05	-0.0012036231760158716
1.25843e-05	-0.0011718644242956816
1.25845e-05	-0.0011401056725754916
1.25848e-05	-0.001108133492189055
1.25850e-05	-0.0010720625927720519
1.25853e-05	-0.001035991693355049
1.25855e-05	-0.0009998405578646842
1.25858e-05	-0.0009621485556886875
1.25860e-05	-0.0009244565535126908
1.25862e-05	-0.0008867224151781826
1.25865e-05	-0.0008481790871562191
1.25868e-05	-0.0008096357591342557
1.25870e-05	-0.0007710924191082359
1.25873e-05	-0.0007325488485546132
1.25875e-05	-0.0006940590585744015
1.25878e-05	-0.0006566020795306198
1.25880e-05	-0.000619233596791983
1.25883e-05	-0.0005835646115723107
1.25885e-05	-0.0005480009612276608
1.25888e-05	-0.0005144601790584493
1.25890e-05	-0.00048106594265009777
1.25893e-05	-0.000450485995016429
1.25895e-05	-0.00042004593881538933
1.25898e-05	-0.00039240154354128735
1.25900e-05	-0.00036697176693255057
1.25903e-05	-0.0003439341746571549
1.25905e-05	-0.0003233537437018225
1.25908e-05	-0.0003052477485377143
1.25910e-05	-0.00028965629553383423
1.25913e-05	-0.000276633484389345
1.25915e-05	-0.00026623332893270464
1.25918e-05	-0.0002585097358080641
1.25920e-05	-0.0002535138382185082
1.25923e-05	-0.00025125904598896826
1.25925e-05	-0.00025168829259972957
1.25928e-05	-0.00025471461133402633
1.25930e-05	-0.00026026537190540125
1.25933e-05	-0.0002682765807526378
1.25935e-05	-0.000278684350646431
1.25938e-05	-0.00029142467823623864
1.25940e-05	-0.00030643180897773877
1.25943e-05	-0.0003236163326205399
1.25945e-05	-0.00034288817904575046
1.25947e-05	-0.00036479899780495395
1.25950e-05	-0.0003868699230677836
1.25953e-05	-0.00041201555982282536
1.25955e-05	-0.0004373212877159603
1.25958e-05	-0.0004657014320258336
1.25960e-05	-0.000494081576335707
1.25963e-05	-0.0005225897832807189
1.25965e-05	-0.0005535573260269238
1.25968e-05	-0.0005845248687733385
1.25970e-05	-0.0006155378636790163
1.25973e-05	-0.0006474237292888931
1.25975e-05	-0.000679309594898986
1.25978e-05	-0.000711157988646535
1.25980e-05	-0.0007422867666134691
1.25983e-05	-0.0007734155445806142
1.25985e-05	-0.0008044154441169987
1.25988e-05	-0.0008329403411780937
1.25990e-05	-0.0008614652382393821
1.25993e-05	-0.0008897664094589846
1.25995e-05	-0.0009137711130016605
1.25998e-05	-0.000937775816544499
1.26000e-05	-0.0009616213069258703
1.26003e-05	-0.0009824092416983996
1.26005e-05	-0.0010033062001924575
1.26008e-05	-0.0010262968680745225
1.26010e-05	-0.0010492875359564317
1.26013e-05	-0.00107239091280519
1.26015e-05	-0.0010976587710962349
1.26018e-05	-0.0011229266293871084
1.26020e-05	-0.0011481944876781532
1.26023e-05	-0.001173676884866304
1.26025e-05	-0.0012032793221462218
1.26028e-05	-0.0012328817594263403
1.26030e-05	-0.0012624841967064588
1.26032e-05	-0.001292361308308404
1.26035e-05	-0.0013275133105461413
1.26038e-05	-0.0013626653127838785
1.26040e-05	-0.0013978173150213775
1.26043e-05	-0.0014329693172591145
1.26045e-05	-0.0014683754616966237
1.26048e-05	-0.0015086621945341815
1.26050e-05	-0.0015489489273714664
1.26053e-05	-0.001589235660209024
1.26055e-05	-0.0016295223930465818
1.26058e-05	-0.0016699220980754164
1.26060e-05	-0.0017124913395619062
1.26063e-05	-0.001755060581048396
1.26065e-05	-0.0017976298225345973
1.26068e-05	-0.001840199064021087
1.26070e-05	-0.0018827683055075769
1.26073e-05	-0.001925337546993778
1.26075e-05	-0.0019677094755414996
1.26078e-05	-0.0020062921741165877
1.26080e-05	-0.0020448748726914143
1.26083e-05	-0.002083457571266502
1.26085e-05	-0.00212204026984159
1.26088e-05	-0.0021606229684164166
1.26090e-05	-0.0021992056669915046
1.26093e-05	-0.0022374409094573122
1.26095e-05	-0.0022690035479261384
1.26098e-05	-0.002300309215079638
1.26100e-05	-0.002326679963025841
1.26103e-05	-0.002352616162209558
1.26105e-05	-0.002370207215829598
1.26108e-05	-0.002387130425212247
1.26110e-05	-0.0023912282445405363
1.26113e-05	-0.0023953260638688535
1.26115e-05	-0.0023986463199636232
1.26117e-05	-0.0023870341244420566
1.26120e-05	-0.002375421928920411
1.26123e-05	-0.0023631074269558415
1.26125e-05	-0.0023373057171029036
1.26128e-05	-0.0023107834277521448
1.26130e-05	-0.002270423011776892
1.26133e-05	-0.002230062595801639
1.26135e-05	-0.0021890692376234245
1.26138e-05	-0.002135920753765912
1.26140e-05	-0.002082429871965608
1.26143e-05	-0.0020221335531927626
1.26145e-05	-0.001957195176031163
1.26148e-05	-0.001887716033865366
1.26150e-05	-0.0018140744814140952
1.26153e-05	-0.0017367272275077474
1.26155e-05	-0.0016561311907610974
1.26158e-05	-0.0015727428495282635
1.26160e-05	-0.0014870090265314683
1.26163e-05	-0.0013992653323541488
1.26165e-05	-0.0013097270017379222
1.26168e-05	-0.0012187162335686094
1.26170e-05	-0.0011267291871158616
1.26173e-05	-0.0010343111373428738
1.26175e-05	-0.0009420070883394705
1.26178e-05	-0.0008503620165640027
1.26180e-05	-0.0007599148144352983
1.26183e-05	-0.0006711344475109379
1.26185e-05	-0.0005844145793044855
1.26188e-05	-0.0005002160280567701
1.26190e-05	-0.0004191083000721388
1.26193e-05	-0.0003416916823152434
1.26195e-05	-0.00026856629649080915
1.26198e-05	-0.00020033114879217898
1.26200e-05	-0.00013753200889191327
1.26202e-05	-8.006288570635774e-05
1.26205e-05	-2.6947310287075454e-05
1.26208e-05	2.2541388452681544e-05
1.26210e-05	6.8366978448363e-05
1.26213e-05	0.00011025091561894896
1.26215e-05	0.00014791475468488088
1.26218e-05	0.00018108079784374191
1.26220e-05	0.0002095047313669321
1.26223e-05	0.00023335046627953674
1.26225e-05	0.00025332720945352784
1.26228e-05	0.00026998760142470476
1.26230e-05	0.0002834063778487323
1.26233e-05	0.0002935064804254038
1.26235e-05	0.00030021101251306403
1.26238e-05	0.0003034434424716711
1.26240e-05	0.00030314822006365013
1.26243e-05	0.0002995255108079406
1.26245e-05	0.00029311694162227424
1.26248e-05	0.00028436617215412546
1.26250e-05	0.0002734173794779523
1.26253e-05	0.00026031966463649126
1.26255e-05	0.0002451221883209176
1.26258e-05	0.00022787446790497926
1.26260e-05	0.0002086390338185822
1.26263e-05	0.0001876386611686593
1.26265e-05	0.0001653099990267707
1.26268e-05	0.000142028197026222
1.26270e-05	0.00011798088503181313
1.26273e-05	9.3296120257846e-05
1.26275e-05	6.810196755419268e-05
1.26278e-05	4.252667999183177e-05
1.26280e-05	1.670671524608965e-05
1.26283e-05	-9.121155736845301e-06
1.26285e-05	-3.458619116718973e-05
1.26288e-05	-5.935619015595963e-05
1.26290e-05	-8.321645391285789e-05
1.26293e-05	-0.00010598961296103743
1.26295e-05	-0.0001274983005613574
1.26298e-05	-0.00014756676497383465
1.26300e-05	-0.00016609451068412833
1.26303e-05	-0.00018388394621476157
1.26305e-05	-0.00020283102757228768
1.26308e-05	-0.0002242377735012683
1.26310e-05	-0.00024818273728691864
1.26313e-05	-0.0002743792621914516
1.26315e-05	-0.00030254071986122647
1.26318e-05	-0.00033238151851933107
1.26320e-05	-0.0003636632494697601
1.26323e-05	-0.00039671299822652923
1.26325e-05	-0.00043254283533593747
1.26328e-05	-0.0004717926952759222
1.26330e-05	-0.0005144004210477144
1.26333e-05	-0.0005610537448545367
1.26335e-05	-0.0006079296742830555
1.26338e-05	-0.0006590805585295091
1.26340e-05	-0.000710431938366641
1.26343e-05	-0.0007656336683586715
1.26345e-05	-0.0008210833075635441
1.26348e-05	-0.000881293835881383
1.26350e-05	-0.0009417333295698251
1.26353e-05	-0.0010065699117387619
1.26355e-05	-0.0010714064939076986
1.26358e-05	-0.0011363807501184081
1.26360e-05	-0.0012039989211819703
1.26363e-05	-0.0012716170922455325
1.26365e-05	-0.0013393184927131428
1.26368e-05	-0.0014086182442953877
1.26370e-05	-0.0014779179958776328
1.26373e-05	-0.0015471501771063476
1.26375e-05	-0.0016150847262095282
1.26378e-05	-0.0016830192753127086
1.26380e-05	-0.0017507315918796707
1.26383e-05	-0.0018141761184353082
1.26385e-05	-0.0018776206449909456
1.26388e-05	-0.0019407233536411072
1.26390e-05	-0.001997261735254515
1.26393e-05	-0.002053800116868306
1.26395e-05	-0.002109816045457335
1.26398e-05	-0.0021557987005948005
1.26400e-05	-0.002201781355732578
1.26403e-05	-0.002247276396498166
1.26405e-05	-0.002283407211000558
1.26408e-05	-0.0023195380255031945
1.26410e-05	-0.002355238714500049
1.26413e-05	-0.0023826792028383333
1.26415e-05	-0.002410119691176804
1.26418e-05	-0.002436684686233241
1.26420e-05	-0.0024464365649119885
1.26423e-05	-0.0024561884435908015
1.26425e-05	-0.002465940322269615
1.26428e-05	-0.0024756922009483624
1.26430e-05	-0.002485444079627176
1.26433e-05	-0.0024951959583059888
1.26435e-05	-0.0025049478369847363
