Time(s)	Current(A)
7.50000e-06	-0.0009071581849485515
7.50025e-06	-0.0008822718487708798
7.50050e-06	-0.0008573855125932923
7.50075e-06	-0.0008283926958932184
7.50100e-06	-0.0007983779349456408
7.50125e-06	-0.000768363173998165
7.50150e-06	-0.0007351249477219756
7.50175e-06	-0.0007010845255430554
7.50200e-06	-0.000664471495863548
7.50225e-06	-0.000627218243632837
7.50250e-06	-0.0005884767792582967
7.50275e-06	-0.0005486224350346836
7.50300e-06	-0.0005080263799534963
7.50325e-06	-0.00046684118562923275
7.50350e-06	-0.00042508323619192776
7.50375e-06	-0.0003827841146221696
7.50400e-06	-0.00034011410734924037
7.50425e-06	-0.00029732009642308713
7.50450e-06	-0.000254660116404395
7.50475e-06	-0.00021239220185428358
7.50500e-06	-0.00017077333864025726
7.50525e-06	-0.00013001055524604875
7.50550e-06	-9.02256284659319e-05
7.50575e-06	-5.15498767139032e-05
7.50600e-06	-1.4201423051112843e-05
7.50625e-06	2.1553602948345527e-05
7.50650e-06	5.5442114982212616e-05
7.50675e-06	8.719107841766421e-05
7.50700e-06	0.00011653406752428817
7.50725e-06	0.00014355500688214816
7.50750e-06	0.00016896631767303403
7.50775e-06	0.00019349127286955305
7.50800e-06	0.00021731103502451433
7.50825e-06	0.00023986931062624608
7.50850e-06	0.00026214808911406256
7.50875e-06	0.0002824499877403129
7.50900e-06	0.00030225991739431506
7.50925e-06	0.000320136266562867
7.50950e-06	0.00033753142230010246
7.50975e-06	0.00035417767128093406
7.51000e-06	0.000370637546322553
7.51025e-06	0.0003860833816676577
7.51050e-06	0.0004012768617346128
7.51075e-06	0.0004164703418015679
7.51100e-06	0.0004299248477649363
7.51125e-06	0.0004429465903019331
7.51150e-06	0.000455968332838974
7.51175e-06	0.00046749300604701297
7.51200e-06	0.00047864511657521127
7.51225e-06	0.0004897972271034474
7.51250e-06	0.0005009493376316457
7.51275e-06	0.0005121014481598441
7.51300e-06	0.0005232535586880803
7.51325e-06	0.0005344056692162786
7.51350e-06	0.00054477884497309
7.51375e-06	0.0005533408038424192
7.51400e-06	0.0005619027627117195
7.51425e-06	0.0005704647215810197
7.51450e-06	0.0005790266804503489
7.51475e-06	0.0005875886393196492
7.51500e-06	0.0005961505981889494
7.51525e-06	0.0006047125570582786
7.51550e-06	0.0006118885008759363
7.51575e-06	0.0006187195191301203
7.51600e-06	0.0006255505373842812
7.51625e-06	0.000631946184838636
7.51650e-06	0.0006379550456407521
7.51675e-06	0.0006435767430129766
7.51700e-06	0.0006487600757135952
7.51725e-06	0.0006533440115974826
7.51750e-06	0.0006569881300566262
7.51775e-06	0.0006593929080127422
7.51800e-06	0.0006604668167282397
7.51825e-06	0.0006602293443412274
7.51850e-06	0.0006582225175238028
7.51875e-06	0.0006558400488587761
7.51900e-06	0.0006515030957574681
7.51925e-06	0.0006466797470397041
7.51950e-06	0.0006390028420339361
7.51975e-06	0.0006306157971856828
7.52000e-06	0.0006222287523374011
7.52025e-06	0.0006104850192856973
7.52050e-06	0.0005979059363086706
7.52075e-06	0.0005853268533316013
7.52100e-06	0.0005699371483421686
7.52125e-06	0.0005538479881916306
7.52150e-06	0.0005377588280410382
7.52175e-06	0.000519034154334878
7.52200e-06	0.0004996536031928808
7.52225e-06	0.000480273052050818
7.52250e-06	0.00045894286376541195
7.52275e-06	0.0004371274861674044
7.52300e-06	0.00041531210856932295
7.52325e-06	0.00039229007352581104
7.52350e-06	0.00036896774809313794
7.52375e-06	0.00034564542266038586
7.52400e-06	0.00032175613485401747
7.52425e-06	0.00029772575203135785
7.52450e-06	0.0002736953692087797
7.52475e-06	0.0002500841490503226
7.52500e-06	0.0002265772422741749
7.52525e-06	0.00020307033549810677
7.52550e-06	0.0001805665134590146
7.52575e-06	0.00015831232043190106
7.52600e-06	0.0001369413659315907
7.52625e-06	0.00011654198853926407
7.52650e-06	9.720614375448216e-05
7.52675e-06	7.908948901185208e-05
7.52700e-06	6.234160374132587e-05
7.52725e-06	4.6792369242222994e-05
7.52750e-06	3.1710300261290915e-05
7.52775e-06	1.6384782293697633e-05
7.52800e-06	6.757001204082315e-07
7.52825e-06	-5.155608270465149e-06
7.52850e-06	-2.113325348284088e-05
7.52875e-06	-0.055515481592156773
7.52900e-06	-0.032411442299881056
7.52925e-06	-0.0168379051606819
7.52950e-06	0.0006969682104869986
7.52975e-06	0.01918929075090341
7.53000e-06	0.021019061116575234
7.53025e-06	0.012432126169451588
7.53050e-06	-0.001565367640192404
7.53075e-06	-0.017608474784694652
7.53100e-06	-0.018492164457831983
7.53125e-06	-0.009565580354579462
7.53150e-06	0.0016421786593360643
7.53175e-06	0.01291767422065515
7.53200e-06	0.013865613922509696
7.53225e-06	0.008363029924917314
7.53250e-06	-0.0004867867335902193
7.53275e-06	-0.010594011185085591
7.53300e-06	-0.011191822063009022
7.53325e-06	-0.005637142017749726
7.53350e-06	0.0013504455428594653
7.53375e-06	0.008382726860317893
7.53400e-06	0.008947504446418092
7.53425e-06	0.005473348700733351
7.53450e-06	-9.580925690066185e-05
7.53475e-06	-0.006450894082640951
7.53500e-06	-0.0068478676819389486
7.53525e-06	-0.0033899611481585765
7.53550e-06	0.0009662801732026674
7.53575e-06	0.005351262637964413
7.53600e-06	0.005685968757417439
7.53625e-06	0.0034919875453548743
7.53650e-06	-1.2792797312085897e-05
7.53675e-06	-0.004008247277881602
7.53700e-06	-0.004270029274481446
7.53725e-06	-0.002115691491974388
7.53750e-06	0.0006031183844443511
7.53775e-06	0.003342074298170715
7.53800e-06	0.0035462572300237805
7.53825e-06	0.002168853573547439
7.53850e-06	-2.7270434832488404e-05
7.53875e-06	-0.002528465069487649
7.53900e-06	-0.002688825133765582
7.53925e-06	-0.0013339672886827395
7.53950e-06	0.0003760280137835993
7.53975e-06	0.0021000526695733757
7.54000e-06	0.002237654529488748
7.54025e-06	0.0013859010883489039
7.54050e-06	2.2593999519762752e-05
7.54075e-06	-0.0015306104296066527
7.54100e-06	-0.001616503457471658
7.54125e-06	-0.0007524852365406326
7.54150e-06	0.00033459326012135306
7.54175e-06	0.0014309279338498837
7.54200e-06	0.0015339186943283756
7.54225e-06	0.001017517704910347
7.54250e-06	0.00018093895654844934
7.54275e-06	-0.0007744358898413672
7.54300e-06	-0.0008106932332885025
7.54325e-06	-0.00025212377025744044
7.54350e-06	0.0004458175563430227
7.54375e-06	0.0011490748738052514
7.54400e-06	0.0012295265522491382
7.54425e-06	0.0009213397206567287
7.54450e-06	0.00041184632047626087
7.54475e-06	-0.00017291784229467354
7.54500e-06	-0.000182949791973345
7.54525e-06	0.00017845013615835486
7.54550e-06	0.0006258431191240041
7.54575e-06	0.001075131188744848
7.54600e-06	0.00113275617053191
7.54625e-06	0.000945307794252388
7.54650e-06	0.0006300264551961339
7.54675e-06	0.00026574786618203516
7.54700e-06	0.00025949790166595254
7.54725e-06	0.0004840089816996549
7.54750e-06	0.0007610696425852821
7.54775e-06	0.0010386810361049238
7.54800e-06	0.0010705970634732169
7.54825e-06	0.0009486880865349323
7.54850e-06	0.0007464251375519332
7.54875e-06	0.0005132170434341704
7.54900e-06	0.000504036648108754
7.54925e-06	0.000639168221928067
7.54950e-06	0.0008069936829272446
7.54975e-06	0.0009749609444388867
7.55000e-06	0.0009888505349674888
7.55025e-06	0.0009062427706511881
7.55050e-06	0.0007731883856742791
7.55075e-06	0.000620661890192605
7.55100e-06	0.0006083944218746183
7.55125e-06	0.0006864633278298734
7.55150e-06	0.0007849682485492075
7.55175e-06	0.000883539576940869
7.55200e-06	0.0008856009577320465
7.55225e-06	0.0008272501044095011
7.55250e-06	0.000737359432024543
7.55275e-06	0.0006353556044277459
7.55300e-06	0.0006213128259370223
7.55325e-06	0.0006639754007289248
7.55350e-06	0.0007195770833140606
7.55375e-06	0.0007753802311538233
7.55400e-06	0.0007709148268520464
7.55425e-06	0.0007288194043636207
7.55450e-06	0.0006672048755273406
7.55475e-06	0.0005982638663886135
7.55500e-06	0.0005847033093728699
7.55525e-06	0.0006069632281868982
7.55550e-06	0.0006376493088130094
7.55575e-06	0.0006688049729397629
7.55600e-06	0.00066257643232524
7.55625e-06	0.0006331701933673791
7.55650e-06	0.0005919553361511169
7.55675e-06	0.000546593017274478
7.55700e-06	0.0005363843128029978
7.55725e-06	0.0005487160921052372
7.55750e-06	0.000565297100806089
7.55775e-06	0.0005800188270327924
7.55800e-06	0.0005688617640164134
7.55825e-06	0.0005408508587353849
7.55850e-06	0.0005032466701032338
7.55875e-06	0.0004609865735247765
7.55900e-06	0.00043882576903683747
7.55925e-06	0.0004289997321753033
7.55950e-06	0.0004201882184359474
7.55975e-06	0.00040870273297161075
7.56000e-06	0.0003796364151952305
7.56025e-06	0.0003387817080350527
7.56050e-06	0.0002908254546296628
7.56075e-06	0.00023899893072195497
7.56100e-06	0.0001989464576503277
7.56125e-06	0.00016594154129050457
7.56150e-06	0.00013303093510901314
7.56175e-06	9.804235039278452e-05
7.56200e-06	5.177688905272794e-05
7.56225e-06	-1.9980519091647957e-06
7.56250e-06	-6.020792455862084e-05
7.56275e-06	-0.00012069016681957307
7.56300e-06	-0.00017350724040309082
7.56325e-06	-0.00022148214004336466
7.56350e-06	-0.00026913918853708183
7.56375e-06	-0.0003167907300728244
7.56400e-06	-0.000370949773866004
7.56425e-06	-0.0004288418579347702
7.56450e-06	-0.0004884488362827738
7.56475e-06	-0.0005481094913800806
7.56500e-06	-0.0006016253101469742
7.56525e-06	-0.0006505756457449311
7.56550e-06	-0.0006967765069960233
7.56575e-06	-0.0007428898674363818
7.56600e-06	-0.0007903115564716299
7.56625e-06	-0.0008379544483931648
7.56650e-06	-0.0008832996652552567
7.56675e-06	-0.0009285674430056787
7.56700e-06	-0.0009664147886832764
7.56725e-06	-0.0009987160765010483
7.56750e-06	-0.0010251958594506344
7.56775e-06	-0.001051485931578811
7.56800e-06	-0.0010746972853476477
7.56825e-06	-0.0010954963592998827
7.56850e-06	-0.0011114292228215277
7.56875e-06	-0.0011272011124149799
7.56900e-06	-0.0011352635916430521
7.56925e-06	-0.0011378979075414772
7.56950e-06	-0.0011343313370144686
7.56975e-06	-0.0011305621581396653
7.57000e-06	-0.0011226565603709177
7.57025e-06	-0.0011118831328582356
7.57050e-06	-0.0010963787226337522
7.57075e-06	-0.0010807183589186102
7.57100e-06	-0.0010588735837984346
7.57125e-06	-0.0010328690932849274
7.57150e-06	-0.0010021696290600478
7.57175e-06	-0.0009713168039119123
7.57200e-06	-0.0009373704215113411
7.57225e-06	-0.0009014649870795687
7.57250e-06	-0.0008635921830526635
7.57275e-06	-0.0008237844569109813
7.57300e-06	-0.0007813248322711031
7.57325e-06	-0.0007367251708478265
7.57350e-06	-0.0006906392262879765
7.57375e-06	-0.0006434599894720277
7.57400e-06	-0.0005960320571153549
7.57425e-06	-0.000548425186730694
7.57450e-06	-0.0005007511032521719
7.57475e-06	-0.0004531769964555537
7.57500e-06	-0.00040540026484638765
7.57525e-06	-0.000357888268029945
7.57550e-06	-0.0003111969810531614
7.57575e-06	-0.00026571921471533404
7.57600e-06	-0.000222130470787462
7.57625e-06	-0.00018062089331260205
7.57650e-06	-0.0001414070231974196
7.57675e-06	-0.00010473991887192622
7.57700e-06	-7.057650718509984e-05
7.57725e-06	-3.896950661615255e-05
7.57750e-06	-9.205027637668105e-06
7.57775e-06	1.9628674486905925e-05
7.57800e-06	4.7523243127774185e-05
7.57825e-06	7.435851591809077e-05
7.57850e-06	9.998461898064667e-05
7.57875e-06	0.00012423006993744477
7.57900e-06	0.0001471076417032196
7.57925e-06	0.00016857010561460037
7.57950e-06	0.000189050404761886
7.57975e-06	0.00020910540020410256
7.58000e-06	0.00022871554736186183
7.58025e-06	0.00024747878555339943
7.58050e-06	0.0002662140417158715
7.58075e-06	0.00028352080803770825
7.58100e-06	0.00030077955412159257
7.58125e-06	0.00031645404891567184
7.58150e-06	0.0003320752873814032
7.58175e-06	0.00034769652584718745
7.58200e-06	0.0003615564626497113
7.58225e-06	0.0003753571913832296
7.58250e-06	0.00038915792011679466
7.58275e-06	0.00040295864885031297
7.58300e-06	0.0004167593775838312
7.58325e-06	0.0004305601063173963
7.58350e-06	0.0004443608350509146
7.58375e-06	0.00045554200237086655
7.58400e-06	0.00046663511028781346
7.58425e-06	0.0004777282182047604
7.58450e-06	0.0004888213261217449
7.58475e-06	0.0004999144340386918
7.58500e-06	0.0005110075419556387
7.58525e-06	0.0005221006498726232
7.58550e-06	0.0005312562839922339
7.58575e-06	0.0005403467878251802
7.58600e-06	0.0005494372916581572
7.58625e-06	0.0005573475731910948
7.58650e-06	0.0005652181802691702
7.58675e-06	0.0005730887873472723
7.58700e-06	0.0005794135215252054
7.58725e-06	0.0005856862895060989
7.58750e-06	0.0005919590574870135
7.58775e-06	0.0005957983830871217
7.58800e-06	0.0005995559058778273
7.58825e-06	0.00060331342866852
7.58850e-06	0.0006070709514592128
7.58875e-06	0.0006108284742499182
7.58900e-06	0.000614585997040611
7.58925e-06	0.0006183435198313037
7.58950e-06	0.0006221010426220091
7.58975e-06	0.0006226466630596011
7.59000e-06	0.0006230843119100942
7.59025e-06	0.0006235219607605889
7.59050e-06	0.000623959609611082
7.59075e-06	0.0006243972584615751
7.59100e-06	0.0006248349073120698
7.59125e-06	0.0006252725561625629
7.59150e-06	0.000625710205013056
7.59175e-06	0.0006238554568817813
7.59200e-06	0.0006219236473354646
7.59225e-06	0.0006199918377891413
7.59250e-06	0.0006180600282428246
7.59275e-06	0.0006161282186965077
7.59300e-06	0.0006141964091501844
7.59325e-06	0.0006122645996038677
7.59350e-06	0.000610332790057551
7.59375e-06	0.0006079340567690189
7.59400e-06	0.0006050034311532685
7.59425e-06	0.000602072805537518
7.59450e-06	0.0005991421799217576
7.59475e-06	0.0005962115543060072
7.59500e-06	0.0005932809286902567
7.59525e-06	0.0005903503030744963
7.59550e-06	0.0005874196774587458
7.59575e-06	0.0005844890518429954
7.59600e-06	0.0005817186279709555
7.59625e-06	0.000578953589454583
7.59650e-06	0.0005763733190914561
7.59675e-06	0.0005739487188190255
7.59700e-06	0.0005717009022543036
7.59725e-06	0.0005693355306301674
7.59750e-06	0.0005659279101105394
7.59775e-06	0.0005605685004713231
7.59800e-06	0.0005530236198917657
7.59825e-06	0.0005434201531108635
7.59850e-06	0.0005310357156786052
7.59875e-06	0.000518560038611149
7.59900e-06	0.000502813680842435
7.59925e-06	0.0004869573755887431
7.59950e-06	0.0004681748377926007
7.59975e-06	0.0004467630414332846
7.60000e-06	0.00042272851862700016
7.60025e-06	0.00039627588650733924
7.60050e-06	0.0003676166501827071
7.60075e-06	0.00033696222271696965
7.60100e-06	0.0003045251124691734
7.60125e-06	0.0002703932405365267
7.60150e-06	0.0002344072708117912
7.60175e-06	0.00019641384523848228
7.60200e-06	0.0001565248021803537
7.60225e-06	0.00011499346452888357
7.60250e-06	7.207744324290701e-05
7.60275e-06	2.8034273208387665e-05
7.60300e-06	-1.6877872476668787e-05
7.60325e-06	-6.24788423365079e-05
7.60350e-06	-0.00010874338333683325
7.60375e-06	-0.00015596892453984934
7.60400e-06	-0.00020322604611460387
7.60425e-06	-0.0002504831676893584
7.60450e-06	-0.00029733398680972605
7.60475e-06	-0.0003441711401109899
7.60500e-06	-0.0003910082934124125
7.60525e-06	-0.0004358040195443676
7.60550e-06	-0.00048053112088432623
7.60575e-06	-0.0005228261642436432
7.60600e-06	-0.0005650394513317319
7.60625e-06	-0.0006037986692724744
7.60650e-06	-0.0006424417749266512
7.60675e-06	-0.0006764531749112366
7.60700e-06	-0.0007103088750781326
7.60725e-06	-0.0007394572390880607
7.60750e-06	-0.0007684473608791999
7.60775e-06	-0.0007953994578405171
7.60800e-06	-0.0008222830443832892
7.60825e-06	-0.0008468317813045624
7.60850e-06	-0.0008713020297193869
7.60875e-06	-0.0008957722781342942
7.60900e-06	-0.0009163250399891756
7.60925e-06	-0.0009367461112777311
7.60950e-06	-0.0009571671825662174
7.60975e-06	-0.0009755045532035726
7.61000e-06	-0.0009937718779800232
7.61025e-06	-0.0010120392027564119
7.61050e-06	-0.0010303065275328006
7.61075e-06	-0.0010460200562743519
7.61100e-06	-0.001061647736387891
7.61125e-06	-0.00107727541650143
7.61150e-06	-0.001092903096615022
7.61175e-06	-0.0011057685632304287
7.61200e-06	-0.0011185411750384603
7.61225e-06	-0.0011313137868465355
7.61250e-06	-0.0011440863986545674
7.61275e-06	-0.001156859010462599
7.61300e-06	-0.0011696316222706742
7.61325e-06	-0.0011824042340787058
7.61350e-06	-0.001195176845886781
7.61375e-06	-0.0012079494576948129
7.61400e-06	-0.0012207220695028445
7.61425e-06	-0.0012298722681588622
7.61450e-06	-0.0012389006954616998
7.61475e-06	-0.001247929122764537
7.61500e-06	-0.001256957550067405
7.61525e-06	-0.0012659859773702423
7.61550e-06	-0.0012750144046730796
7.61575e-06	-0.0012840428319759478
7.61600e-06	-0.001293071259278785
7.61625e-06	-0.0013020996865816224
7.61650e-06	-0.0013111281138844903
7.61675e-06	-0.0013159479044686547
7.61700e-06	-0.0013206262171577205
7.61725e-06	-0.0013253045298468023
7.61750e-06	-0.0013299828425358683
7.61775e-06	-0.00133466115522495
7.61800e-06	-0.001339339467914016
7.61825e-06	-0.001344017780603082
7.61850e-06	-0.0013486960932921638
7.61875e-06	-0.0013533744059812296
7.61900e-06	-0.0013580527186702956
7.61925e-06	-0.0013586284462670545
7.61950e-06	-0.0013590662610093813
7.61975e-06	-0.001359504075751708
7.62000e-06	-0.0013599418904940363
7.62025e-06	-0.001360379705236363
7.62050e-06	-0.0013608175199786897
7.62075e-06	-0.0013612553347210178
7.62100e-06	-0.0013616931494633447
7.62125e-06	-0.0013621309642056715
7.62150e-06	-0.0013625687789479996
7.62175e-06	-0.0013601738799631374
7.62200e-06	-0.0013576837562292504
7.62225e-06	-0.001355193632495372
7.62250e-06	-0.0013527035087614935
7.62275e-06	-0.0013502133850276064
7.62300e-06	-0.0013477232612937279
7.62325e-06	-0.0013452331375598493
7.62350e-06	-0.0013427430138259625
7.62375e-06	-0.001340252890092084
7.62400e-06	-0.0013377627663582053
7.62425e-06	-0.0013349483111625463
7.62450e-06	-0.001331764396459274
7.62475e-06	-0.001328580481756002
7.62500e-06	-0.0013253965670527192
7.62525e-06	-0.001322212652349447
7.62550e-06	-0.001319028737646175
7.62575e-06	-0.001315844822942892
7.62600e-06	-0.0013126609082396198
7.62625e-06	-0.001309476993536337
7.62650e-06	-0.001306293078833065
7.62675e-06	-0.0013031091641297927
7.62700e-06	-0.0013014292052604304
7.62725e-06	-0.0012997998035000867
7.62750e-06	-0.0012981704017397432
7.62775e-06	-0.0012965409999793939
7.62800e-06	-0.0012949115982190504
7.62825e-06	-0.0012932821964587067
7.62850e-06	-0.0012916527946983576
7.62875e-06	-0.001290023392938014
7.62900e-06	-0.0012883939911776702
7.62925e-06	-0.001286764589417321
7.62950e-06	-0.0012851351876569774
7.62975e-06	-0.0012852502581537353
7.63000e-06	-0.0012854239709803226
7.63025e-06	-0.0012855976838069111
7.63050e-06	-0.0012857713966334995
7.63075e-06	-0.0012859451094600868
7.63100e-06	-0.0012861188222866753
7.63125e-06	-0.0012862925351132637
7.63150e-06	-0.0012864662479398512
7.63175e-06	-0.0012866399607664395
7.63200e-06	-0.001286813673593028
7.63225e-06	-0.0012869873864196153
7.63250e-06	-0.0012881381434426337
7.63275e-06	-0.0012893217448676083
7.63300e-06	-0.0012905053462925829
7.63325e-06	-0.0012916889477175494
7.63350e-06	-0.001292872549142524
7.63375e-06	-0.0012940561505674984
7.63400e-06	-0.001295239751992465
7.63425e-06	-0.0012964233534174395
7.63450e-06	-0.0012976539238059666
7.63475e-06	-0.0012989379985016293
7.63500e-06	-0.0013002220731973004
7.63525e-06	-0.0013015061478929718
7.63550e-06	-0.0013027902225886344
7.63575e-06	-0.0013040742972843056
7.63600e-06	-0.001305358371979977
7.63625e-06	-0.0013066424466756396
7.63650e-06	-0.001307926521371311
7.63675e-06	-0.0013089016410033644
7.63700e-06	-0.001309866374775341
7.63725e-06	-0.0013100090845505543
7.63750e-06	-0.0013101241610961806
7.63775e-06	-0.0013066280648807648
7.63800e-06	-0.0013030105751702982
7.63825e-06	-0.0012993930854598317
7.63850e-06	-0.001291308685326715
7.63875e-06	-0.0012830741251475012
7.63900e-06	-0.0012748395649682877
7.63925e-06	-0.001262130961185708
7.63950e-06	-0.0012492719575673485
7.63975e-06	-0.001236412953948989
7.64000e-06	-0.0012180154484422825
7.64025e-06	-0.0011994317601781905
7.64050e-06	-0.0011808480719140988
7.64075e-06	-0.0011577037282150954
7.64100e-06	-0.0011344060731293727
7.64125e-06	-0.0011111084180436502
7.64150e-06	-0.0010836244868837471
7.64175e-06	-0.0010559998295063336
7.64200e-06	-0.001028375172128733
7.64225e-06	-0.0009975932938595944
7.64250e-06	-0.0009667052821807504
7.64275e-06	-0.0009341065178823173
7.64300e-06	-0.0009014502447762042
7.64325e-06	-0.0008676509826965646
7.64350e-06	-0.0008338132978007213
7.64375e-06	-0.0007990725522203749
7.64400e-06	-0.0007643014492743588
7.64425e-06	-0.0007292367783966852
7.64450e-06	-0.0006942367431100003
7.64475e-06	-0.0006595164490648125
