Time(s)	Current(A)
1.00000e-06	-0.011422787667126757
1.00025e-06	-0.011413810733495728
1.00050e-06	-0.011404833799864697
1.00075e-06	-0.01139585686623366
1.00100e-06	-0.011388107468437754
1.00125e-06	-0.011381443855416375
1.00150e-06	-0.011374780242395001
1.00175e-06	-0.011368116629373627
1.00200e-06	-0.011361453016352248
1.00225e-06	-0.011354789403330874
1.00250e-06	-0.011348125790309496
1.00275e-06	-0.011341462177288122
1.00300e-06	-0.011334798564266748
1.00325e-06	-0.011328134951245367
1.00350e-06	-0.011321471338223994
1.00375e-06	-0.01131260262642649
1.00400e-06	-0.011301783452077182
1.00425e-06	-0.011290964277727866
1.00450e-06	-0.011280145103378558
1.00475e-06	-0.01126932592902925
1.00500e-06	-0.011258506754679931
1.00525e-06	-0.011247687580330623
1.00550e-06	-0.011236868405981306
1.00575e-06	-0.011226049231631998
1.00600e-06	-0.01121523005728269
1.00625e-06	-0.011204410882933374
1.00650e-06	-0.011191313533385405
1.00675e-06	-0.011176201083443964
1.00700e-06	-0.011161088633502536
1.00725e-06	-0.011145976183561107
1.00750e-06	-0.011130863733619666
1.00775e-06	-0.011115751283678237
1.00800e-06	-0.011100638833736796
1.00825e-06	-0.011085526383795369
1.00850e-06	-0.01107041393385394
1.00875e-06	-0.011055301483912499
1.00900e-06	-0.01104018903397107
1.00925e-06	-0.011025180606100752
1.00950e-06	-0.011013463353343514
1.00975e-06	-0.011001746100586266
1.01000e-06	-0.010990028847829028
1.01025e-06	-0.01097831159507179
1.01050e-06	-0.010966594342314543
1.01075e-06	-0.010954877089557304
1.01100e-06	-0.010943159836800057
1.01125e-06	-0.010931442584042819
1.01150e-06	-0.01091972533128558
1.01175e-06	-0.010908008078528333
1.01200e-06	-0.010896290825771095
1.01225e-06	-0.010890806827188387
1.01250e-06	-0.01089083629084802
1.01275e-06	-0.010890865754507654
1.01300e-06	-0.010890895218167287
1.01325e-06	-0.010890924681826921
1.01350e-06	-0.010890954145486555
1.01375e-06	-0.010890983609146187
1.01400e-06	-0.01089101307280582
1.01425e-06	-0.010891042536465454
1.01450e-06	-0.010891072000125087
1.01475e-06	-0.010891101463784721
1.01500e-06	-0.010897217794373025
1.01525e-06	-0.010908718104187141
1.01550e-06	-0.010920218414001247
1.01575e-06	-0.010931718723815353
1.01600e-06	-0.01094321903362947
1.01625e-06	-0.010954719343443576
1.01650e-06	-0.010966219653257692
1.01675e-06	-0.010977719963071798
1.01700e-06	-0.010989220272885904
1.01725e-06	-0.01100072058270002
1.01750e-06	-0.011012220892514126
1.01775e-06	-0.011026138131118095
1.01800e-06	-0.011042193200981891
1.01825e-06	-0.011058248270845701
1.01850e-06	-0.011074091884487094
1.01875e-06	-0.011089748460047663
1.01900e-06	-0.011105405035608246
1.01925e-06	-0.011121061611168815
1.01950e-06	-0.011136718186729398
1.01975e-06	-0.011152374762289967
1.02000e-06	-0.011168031337850536
1.02025e-06	-0.011183687913411119
1.02050e-06	-0.011199344488971688
1.02075e-06	-0.01121500106453227
1.02100e-06	-0.01123065764009284
1.02125e-06	-0.011246314215653409
1.02150e-06	-0.011261657199455898
1.02175e-06	-0.011267078390909832
1.02200e-06	-0.01127249958236377
1.02225e-06	-0.011277920773817705
1.02250e-06	-0.011283341965271643
1.02275e-06	-0.011288763156725577
1.02300e-06	-0.01129418434817951
1.02325e-06	-0.01129960553963345
1.02350e-06	-0.011305026731087383
1.02375e-06	-0.011310447922541322
1.02400e-06	-0.011315869113995255
1.02425e-06	-0.01132129030544919
1.02450e-06	-0.011326711496903128
1.02475e-06	-0.01132520503103942
1.02500e-06	-0.011317570886763034
1.02525e-06	-0.011309936742486652
1.02550e-06	-0.011302302598210271
1.02575e-06	-0.011294668453933884
1.02600e-06	-0.011287034309657504
1.02625e-06	-0.011279400165381117
1.02650e-06	-0.011271766021104737
1.02675e-06	-0.01126413187682835
1.02700e-06	-0.01125649773255197
1.02725e-06	-0.01124561178416358
1.02750e-06	-0.011231849537346218
1.02775e-06	-0.011218087290528868
1.02800e-06	-0.011204325043711506
1.02825e-06	-0.011190562796894156
1.02850e-06	-0.011176800550076806
1.02875e-06	-0.011163038303259444
1.02900e-06	-0.011149276056442094
1.02925e-06	-0.011135513809624732
1.02950e-06	-0.011121751562807381
1.02975e-06	-0.01110967317815222
1.03000e-06	-0.01109908420981021
1.03025e-06	-0.011088495241468209
1.03050e-06	-0.011077906273126199
1.03075e-06	-0.011067317304784198
1.03100e-06	-0.011056728336442188
1.03125e-06	-0.011046139368100187
1.03150e-06	-0.011035550399758186
1.03175e-06	-0.011024961431416177
1.03200e-06	-0.011014372463074176
1.03225e-06	-0.011003783494732166
1.03250e-06	-0.010998527655855898
1.03275e-06	-0.010997989097410704
1.03300e-06	-0.01099745053896551
1.03325e-06	-0.010996911980520316
1.03350e-06	-0.010996373422075123
1.03375e-06	-0.01099583486362993
1.03400e-06	-0.010995296305184735
1.03425e-06	-0.01099475774673954
1.03450e-06	-0.010994219188294348
1.03475e-06	-0.010993680629849154
1.03500e-06	-0.01099314207140396
1.03525e-06	-0.010997340100040377
1.03550e-06	-0.011005727753116507
1.03575e-06	-0.011014115406192636
1.03600e-06	-0.011022503059268775
1.03625e-06	-0.011030890712344905
1.03650e-06	-0.011039278365421042
1.03675e-06	-0.011047666018497172
1.03700e-06	-0.011056053671573302
1.03725e-06	-0.011064441324649439
1.03750e-06	-0.011072828977725569
1.03775e-06	-0.011081216630801706
1.03800e-06	-0.011089700313985262
1.03825e-06	-0.011101222312940119
1.03850e-06	-0.011112744311894986
1.03875e-06	-0.011124266310849841
1.03900e-06	-0.011135788309804709
1.03925e-06	-0.011147310308759564
1.03950e-06	-0.01115883230771443
1.03975e-06	-0.011170354306669286
1.04000e-06	-0.011181876305624143
1.04025e-06	-0.011193398304579008
1.04050e-06	-0.011204920303533865
1.04075e-06	-0.011216442302488732
1.04100e-06	-0.011225493058283879
1.04125e-06	-0.011232357940461657
1.04150e-06	-0.011239222822639438
1.04175e-06	-0.011246087704817215
1.04200e-06	-0.011252952586994998
1.04225e-06	-0.011259817469172774
1.04250e-06	-0.011266682351350551
1.04275e-06	-0.011273547233528334
1.04300e-06	-0.01128041211570611
1.04325e-06	-0.011281447911133991
1.04350e-06	-0.011277327740063892
1.04375e-06	-0.011273207568993793
1.04400e-06	-0.011269087397923691
1.04425e-06	-0.011264967226853592
1.04450e-06	-0.01126084705578349
1.04475e-06	-0.011256726884713391
1.04500e-06	-0.011252606713643289
1.04525e-06	-0.01124848654257319
1.04550e-06	-0.011238763134828487
1.04575e-06	-0.01122408353037343
1.04600e-06	-0.011209403925918385
1.04625e-06	-0.011194724321463328
1.04650e-06	-0.011180044717008283
1.04675e-06	-0.011165365112553238
1.04700e-06	-0.01115068550809818
1.04725e-06	-0.011136005903643135
1.04750e-06	-0.011121326299188078
1.04775e-06	-0.01110651983616605
1.04800e-06	-0.01108769966957822
1.04825e-06	-0.011068879502990377
1.04850e-06	-0.011050059336402547
1.04875e-06	-0.011031239169814702
1.04900e-06	-0.011012419003226874
1.04925e-06	-0.01099359883663903
1.04950e-06	-0.010974778670051201
1.04975e-06	-0.010955958503463372
1.05000e-06	-0.010937138336875527
1.05025e-06	-0.010921693148281692
1.05050e-06	-0.010909233208357901
1.05075e-06	-0.010896773268434122
1.05100e-06	-0.010884313328510342
1.05125e-06	-0.01087185338858655
1.05150e-06	-0.01085939344866277
1.05175e-06	-0.01084693350873898
1.05200e-06	-0.0108344735688152
1.05225e-06	-0.01082201362889142
1.05250e-06	-0.010809553688967629
1.05275e-06	-0.010797093749043848
1.05300e-06	-0.01078463380912006
1.05325e-06	-0.010772173869196279
1.05350e-06	-0.010759713929272488
1.05375e-06	-0.010747336277084069
1.05400e-06	-0.010737562143007194
1.05425e-06	-0.010727788008930312
1.05450e-06	-0.010718013874853436
1.05475e-06	-0.010708239740776554
1.05500e-06	-0.010698465606699679
1.05525e-06	-0.010688691472622806
1.05550e-06	-0.010678917338545922
1.05575e-06	-0.010669143204469048
1.05600e-06	-0.010659369070392164
1.05625e-06	-0.010649594936315291
1.05650e-06	-0.010639820802238416
1.05675e-06	-0.010630046668161534
1.05700e-06	-0.010620272534084658
1.05725e-06	-0.010610498400007776
1.05750e-06	-0.010601222594146741
1.05775e-06	-0.010592387571498557
1.05800e-06	-0.010583552548850381
1.05825e-06	-0.010574717526202206
1.05850e-06	-0.010565882503554024
1.05875e-06	-0.010557047480905848
1.05900e-06	-0.010548212458257664
1.05925e-06	-0.010539377435609489
1.05950e-06	-0.010530542412961313
1.05975e-06	-0.01052170739031313
1.06000e-06	-0.010512872367664955
1.06025e-06	-0.010504037345016771
1.06050e-06	-0.010495202322368596
1.06075e-06	-0.01048636729972042
1.06100e-06	-0.010477532277072238
1.06125e-06	-0.010472071322417422
1.06150e-06	-0.010469594811515173
1.06175e-06	-0.010467118300612928
1.06200e-06	-0.01046464178971068
1.06225e-06	-0.010462165278808434
1.06250e-06	-0.010459688767906188
1.06275e-06	-0.010457212257003941
1.06300e-06	-0.010454735746101694
1.06325e-06	-0.010452259235199447
1.06350e-06	-0.010449782724297202
1.06375e-06	-0.010447306213394954
1.06400e-06	-0.010444829702492707
1.06425e-06	-0.010442353191590462
1.06450e-06	-0.010439876680688213
1.06475e-06	-0.010437400169785968
1.06500e-06	-0.01043770083543596
1.06525e-06	-0.010440457980098013
1.06550e-06	-0.010443215124760062
1.06575e-06	-0.010445972269422114
1.06600e-06	-0.010448729414084165
1.06625e-06	-0.010451486558746217
1.06650e-06	-0.010454243703408268
1.06675e-06	-0.010457000848070318
1.06700e-06	-0.01045975799273237
1.06725e-06	-0.01046251513739442
1.06750e-06	-0.010465272282056473
1.06775e-06	-0.010468029426718524
1.06800e-06	-0.010470786571380572
1.06825e-06	-0.010474436954775712
1.06850e-06	-0.01047887742917128
1.06875e-06	-0.010483317903566852
1.06900e-06	-0.01048775837796242
1.06925e-06	-0.01049219885235799
1.06950e-06	-0.010496639326753562
1.06975e-06	-0.01050107980114913
1.07000e-06	-0.010505520275544702
1.07025e-06	-0.01050996074994027
1.07050e-06	-0.010514401224335843
1.07075e-06	-0.010518841698731412
1.07100e-06	-0.01052328217312698
1.07125e-06	-0.010527722647522553
1.07150e-06	-0.010533731328367234
1.07175e-06	-0.010541127125283304
1.07200e-06	-0.010548522922199368
1.07225e-06	-0.010555918719115431
1.07250e-06	-0.010563314516031501
1.07275e-06	-0.010570710312947566
1.07300e-06	-0.010578106109863636
1.07325e-06	-0.010585501906779699
1.07350e-06	-0.010593212717582502
1.07375e-06	-0.010610890315722337
1.07400e-06	-0.010628567913862156
1.07425e-06	-0.010646245512001992
1.07450e-06	-0.010663923110141811
1.07475e-06	-0.010681600708281646
1.07500e-06	-0.010699278306421466
1.07525e-06	-0.010716955904561285
1.07550e-06	-0.01073463350270112
1.07575e-06	-0.01075727693363363
1.07600e-06	-0.010784312762313453
1.07625e-06	-0.010811348590993253
1.07650e-06	-0.010838384419673053
1.07675e-06	-0.010865420248352875
1.07700e-06	-0.010892456077032675
1.07725e-06	-0.010919491905712498
1.07750e-06	-0.010946527734392298
1.07775e-06	-0.010975562458920698
1.07800e-06	-0.011006365254584202
1.07825e-06	-0.011037168050247678
1.07850e-06	-0.01106797084591118
1.07875e-06	-0.011098773641574656
1.07900e-06	-0.011129576437238158
1.07925e-06	-0.011160379232901634
1.07950e-06	-0.01119118202856511
1.07975e-06	-0.011220720110191646
1.08000e-06	-0.011249139522036326
1.08025e-06	-0.01127755893388103
1.08050e-06	-0.01130597834572571
1.08075e-06	-0.011334235520345973
1.08100e-06	-0.011357359638991977
1.08125e-06	-0.01138048375763796
1.08150e-06	-0.011403607876283963
1.08175e-06	-0.011426731994929948
1.08200e-06	-0.01144817381836158
1.08225e-06	-0.011468127611483307
1.08250e-06	-0.011488081404605015
1.08275e-06	-0.011508035197726741
1.08300e-06	-0.01152798899084845
1.08325e-06	-0.011547942783970158
1.08350e-06	-0.011567896577091884
1.08375e-06	-0.011587850370213593
1.08400e-06	-0.011607804163335319
1.08425e-06	-0.011628242048065535
1.08450e-06	-0.01164910812338924
1.08475e-06	-0.011669974198712926
1.08500e-06	-0.011690840274036614
1.08525e-06	-0.011711706349360319
1.08550e-06	-0.011732572424684007
1.08575e-06	-0.011753438500007712
1.08600e-06	-0.0117743045753314
1.08625e-06	-0.011795170650655088
1.08650e-06	-0.01181693217206725
1.08675e-06	-0.011839485736938306
1.08700e-06	-0.011862039301809383
1.08725e-06	-0.01188459286668044
1.08750e-06	-0.011907146431551498
1.08775e-06	-0.011929699996422575
1.08800e-06	-0.011952253561293633
1.08825e-06	-0.01197480712616471
1.08850e-06	-0.011997309306577459
1.08875e-06	-0.012018185723842697
1.08900e-06	-0.012039062141107917
1.08925e-06	-0.012059938558373137
1.08950e-06	-0.012080814975638374
1.08975e-06	-0.012101691392903595
1.09000e-06	-0.012122567810168832
1.09025e-06	-0.012143444227434052
1.09050e-06	-0.01216432064469927
1.09075e-06	-0.012183315389690844
1.09100e-06	-0.012200645750600148
1.09125e-06	-0.012217976111509465
1.09150e-06	-0.012233469878495216
1.09175e-06	-0.01224733913427639
1.09200e-06	-0.012261208390057576
1.09225e-06	-0.012272269628974375
1.09250e-06	-0.01228084710988659
1.09275e-06	-0.012289424590798799
1.09300e-06	-0.012292901271729828
1.09325e-06	-0.012291866173211183
1.09350e-06	-0.01229083107469254
1.09375e-06	-0.012289795976173896
1.09400e-06	-0.012288760877655252
1.09425e-06	-0.012287725779136607
1.09450e-06	-0.012286690680617962
1.09475e-06	-0.012278736849944884
1.09500e-06	-0.01226466323538161
1.09525e-06	-0.01225058962081835
1.09550e-06	-0.012236516006255077
1.09575e-06	-0.012222442391691816
1.09600e-06	-0.012208368777128557
1.09625e-06	-0.012194295162565283
1.09650e-06	-0.012177312174857579
1.09675e-06	-0.01215775577709404
1.09700e-06	-0.012138104012754381
1.09725e-06	-0.018806599839735837
1.09750e-06	-0.02561795468837177
1.09775e-06	-0.02438411725515724
1.09800e-06	-0.022260395361129337
1.09825e-06	-0.017378944207881664
1.09850e-06	-0.011433016254912767
1.09875e-06	-0.010936368700783692
1.09900e-06	-0.01220210776307048
1.09925e-06	-0.015179072382143267
1.09950e-06	-0.01993864011728812
1.09975e-06	-0.01994233071320835
1.10000e-06	-0.017650038986226697
1.10025e-06	-0.015244480212370758
1.10050e-06	-0.011458277416489233
1.10075e-06	-0.00978074077028863
1.10100e-06	-0.010408001642297389
1.10125e-06	-0.011395468280357405
1.10150e-06	-0.013686678388672244
1.10175e-06	-0.0156957253361382
1.10200e-06	-0.015657977507909638
1.10225e-06	-0.014270622297474155
1.10250e-06	-0.012302413669357934
1.10275e-06	-0.010630585314562985
1.10300e-06	-0.010315943554074855
1.10325e-06	-0.011040649789087578
1.10350e-06	-0.012492851194645018
1.10375e-06	-0.0137681050951548
1.10400e-06	-0.013761159380638335
1.10425e-06	-0.012908859326852354
1.10450e-06	-0.011692829673292734
1.10475e-06	-0.010662585917067752
1.10500e-06	-0.010482570641156834
1.10525e-06	-0.010953616339756124
1.10550e-06	-0.011880315277943091
1.10575e-06	-0.01269609163295361
1.10600e-06	-0.012708636868047584
1.10625e-06	-0.012191621807772762
1.10650e-06	-0.011446738109825796
1.10675e-06	-0.010818172630022136
1.10700e-06	-0.010722062787602139
1.10725e-06	-0.011033565762144076
1.10750e-06	-0.011630203815136955
1.10775e-06	-0.012157018898260789
1.10800e-06	-0.01218032867663681
1.10825e-06	-0.011871550410721538
1.10850e-06	-0.011419633850849079
1.10875e-06	-0.011040128543310001
1.10900e-06	-0.010993631540726806
1.10925e-06	-0.01120186101085865
1.10950e-06	-0.011588023671529378
1.10975e-06	-0.011929712070305706
1.11000e-06	-0.01195522951397281
1.11025e-06	-0.011771918659220974
1.11050e-06	-0.01149809469930989
1.11075e-06	-0.011268722796684937
1.11100e-06	-0.01124697093361178
1.11125e-06	-0.011383728384306735
1.11150e-06	-0.011630822364658377
1.11175e-06	-0.011848886646484192
1.11200e-06	-0.011867729222375317
1.11225e-06	-0.011754647240744067
1.11250e-06	-0.01158382277417543
1.11275e-06	-0.011439857295259238
1.11300e-06	-0.011425010789158014
1.11325e-06	-0.011508566374160761
1.11350e-06	-0.011660399280800074
1.11375e-06	-0.011793263693539262
1.11400e-06	-0.011800616890818422
1.11425e-06	-0.011724678582129186
1.11450e-06	-0.011611980475156936
1.11475e-06	-0.011515573555747447
1.11500e-06	-0.011499565726091234
1.11525e-06	-0.011546246791532057
1.11550e-06	-0.011636833744397257
1.11575e-06	-0.011707744594118824
1.11600e-06	-0.011704248487938431
1.11625e-06	-0.011647846971570267
1.11650e-06	-0.011567733672379269
1.11675e-06	-0.011500431212458763
1.11700e-06	-0.011481852237370574
1.11725e-06	-0.01150257991791136
1.11750e-06	-0.011550902055356613
1.11775e-06	-0.011586958246967573
1.11800e-06	-0.011576643784097198
1.11825e-06	-0.011533485578559152
1.11850e-06	-0.011475831123254957
1.11875e-06	-0.011426346945239857
1.11900e-06	-0.011407938673538074
1.11925e-06	-0.011414700735725146
1.11950e-06	-0.011439352844275217
1.11975e-06	-0.011456549320229976
1.12000e-06	-0.011445559468138859
1.12025e-06	-0.011416611311098503
1.12050e-06	-0.011384923060497184
1.12075e-06	-0.011353234809895892
1.12100e-06	-0.011329383119728673
1.12125e-06	-0.011331831466788072
1.12150e-06	-0.011342143380775074
1.12175e-06	-0.011352455294762084
1.12200e-06	-0.011356256644390226
1.12225e-06	-0.011339492949516378
1.12250e-06	-0.011320082013975384
1.12275e-06	-0.011300671078434391
1.12300e-06	-0.01128587463083514
1.12325e-06	-0.01128640855073606
1.12350e-06	-0.011291100553866977
1.12375e-06	-0.01129579255699789
1.12400e-06	-0.011296183037809066
1.12425e-06	-0.011282834937978565
1.12450e-06	-0.011267280298778196
1.12475e-06	-0.011251725659577813
1.12500e-06	-0.011238909874566584
1.12525e-06	-0.01123512826051728
1.12550e-06	-0.01123361827618297
1.12575e-06	-0.011232108291848661
1.12600e-06	-0.011227823350808276
1.12625e-06	-0.011215370980089893
1.12650e-06	-0.011203598441865026
1.12675e-06	-0.011191825903640169
1.12700e-06	-0.011180053365415311
1.12725e-06	-0.011168280827190444
1.12750e-06	-0.011158169526355939
1.12775e-06	-0.011148616433306672
1.12800e-06	-0.01113906334025741
1.12825e-06	-0.011129510247208142
1.12850e-06	-0.011119912478579902
1.12875e-06	-0.011110179598881624
1.12900e-06	-0.01110044671918334
1.12925e-06	-0.011090713839485063
1.12950e-06	-0.011080980959786779
1.12975e-06	-0.011071515747851732
1.13000e-06	-0.011062860035843256
1.13025e-06	-0.011054204323834773
1.13050e-06	-0.011045548611826297
1.13075e-06	-0.011036892899817814
1.13100e-06	-0.011029522298555687
1.13125e-06	-0.01102603822080405
1.13150e-06	-0.011022554143052412
1.13175e-06	-0.01101950260122459
1.13200e-06	-0.011017759165364908
1.13225e-06	-0.011016015729505228
1.13250e-06	-0.011015953914940941
1.13275e-06	-0.011020977779349274
1.13300e-06	-0.011026001643757609
1.13325e-06	-0.011033717112800493
1.13350e-06	-0.011049572724412893
1.13375e-06	-0.011065428336025305
1.13400e-06	-0.011081283947637705
1.13425e-06	-0.011097139559250105
1.13450e-06	-0.011112995170862517
1.13475e-06	-0.011132128821582977
1.13500e-06	-0.011161176151803542
1.13525e-06	-0.011190223482024081
1.13550e-06	-0.011219270812244622
1.13575e-06	-0.011248318142465187
1.13600e-06	-0.011277365472685728
1.13625e-06	-0.011308860817239051
1.13650e-06	-0.011347759621210079
1.13675e-06	-0.01138665842518114
1.13700e-06	-0.011425557229152167
1.13725e-06	-0.011464456033123195
1.13750e-06	-0.011503354837094255
1.13775e-06	-0.01154598242642544
1.13800e-06	-0.011589862959513818
1.13825e-06	-0.011633743492602159
1.13850e-06	-0.0116776240256905
1.13875e-06	-0.011721504558778876
1.13900e-06	-0.01176558010015935
1.13925e-06	-0.011810245399515373
1.13950e-06	-0.011854615977363063
1.13975e-06	-0.011898095237420274
1.14000e-06	-0.01194099408009016
1.14025e-06	-0.011982137583130235
1.14050e-06	-0.012022593518364185
1.14075e-06	-0.012060970062035077
1.14100e-06	-0.012096173749892301
1.14125e-06	-0.012121781861065216
1.14150e-06	-0.01214738997223813
1.14175e-06	-0.012172998083411065
1.14200e-06	-0.01219860619458398
1.14225e-06	-0.012224214305756917
1.14250e-06	-0.012249822416929831
1.14275e-06	-0.012275430528102746
1.14300e-06	-0.012301038639275681
1.14325e-06	-0.012326646750448596
1.14350e-06	-0.012352254861621533
1.14375e-06	-0.012377862972794447
1.14400e-06	-0.012403471083967362
1.14425e-06	-0.012429079195140297
1.14450e-06	-0.012451360948680728
1.14475e-06	-0.01246358289439654
1.14500e-06	-0.012475804840112343
1.14525e-06	-0.012488026785828155
1.14550e-06	-0.012500248731543958
1.14575e-06	-0.012512470677259758
1.14600e-06	-0.012524692622975571
1.14625e-06	-0.012536914568691373
1.14650e-06	-0.012549136514407186
1.14675e-06	-0.012561358460122988
1.14700e-06	-0.01257358040583879
1.14725e-06	-0.012585802351554603
1.14750e-06	-0.012598024297270404
