Time(s)	Current(A)
1.20000e-05	0.0005634039062890965
1.20003e-05	0.0005526724508847851
1.20005e-05	0.0005460406647869148
1.20008e-05	0.0005396525777284965
1.20010e-05	0.0005374910478965746
1.20013e-05	0.0005355807597768795
1.20015e-05	0.0005378643660266343
1.20018e-05	0.0005403972723912925
1.20020e-05	0.000546912657357325
1.20023e-05	0.0005536647751270948
1.20025e-05	0.0005641722698669065
1.20028e-05	0.0005749029976754565
1.20030e-05	0.0005891546111602109
1.20033e-05	0.0006036155187107396
1.20035e-05	0.0006219668591548368
1.20038e-05	0.000640549460875799
1.20040e-05	0.0006591320625968872
1.20043e-05	0.0006814825313740302
1.20045e-05	0.0007040569756753037
1.20048e-05	0.0007266314199767301
1.20050e-05	0.0007525895454762748
1.20052e-05	0.000778748809115385
1.20055e-05	0.0008049080727546726
1.20058e-05	0.0008310673363939601
1.20060e-05	0.0008572266000330703
1.20063e-05	0.0008837136056540435
1.20065e-05	0.0009106112070139906
1.20068e-05	0.0009375088083739378
1.20070e-05	0.0009644064097337026
1.20073e-05	0.0009913040110936498
1.20075e-05	0.001018201612453597
1.20078e-05	0.0010397567421488584
1.20080e-05	0.0010609942961774888
1.20083e-05	0.001082231850206119
1.20085e-05	0.0011034694042346054
1.20088e-05	0.0011247069582632355
1.20090e-05	0.001145944512291866
1.20093e-05	0.001167182066320352
1.20095e-05	0.0011852574544659814
1.20098e-05	0.0011993712755552493
1.20100e-05	0.0012134850966444212
1.20103e-05	0.001227598917733689
1.20105e-05	0.0012417127388229569
1.20108e-05	0.0012558265599121288
1.20110e-05	0.0012699403810013967
1.20113e-05	0.0012840542020906643
1.20115e-05	0.001293162856735621
1.20118e-05	0.0013019739863450964
1.20120e-05	0.0013107851159545715
1.20123e-05	0.0013195962455639873
1.20125e-05	0.0013284073751734624
1.20128e-05	0.0013372185047829377
1.20130e-05	0.0013460296343923532
1.20133e-05	0.0013548407640018285
1.20135e-05	0.0013636518936113039
1.20137e-05	0.0013724630232207194
1.20140e-05	0.0013812741528301947
1.20143e-05	0.0013900852824396698
1.20145e-05	0.0013988964120490856
1.20148e-05	0.0014077075416585607
1.20150e-05	0.001416518671268036
1.20153e-05	0.0014253298008775114
1.20155e-05	0.0014341409304869269
1.20158e-05	0.001442952060096402
1.20160e-05	0.0014497270544674727
1.20163e-05	0.0014539511749808542
1.20165e-05	0.0014581752954942644
1.20168e-05	0.0014623994160076746
1.20170e-05	0.0014666235365210561
1.20173e-05	0.0014708476570344663
1.20175e-05	0.0014750717775478765
1.20178e-05	0.001479295898061258
1.20180e-05	0.0014835200185746682
1.20183e-05	0.0014877441390880783
1.20185e-05	0.0014919682596014599
1.20188e-05	0.00149619238011487
1.20190e-05	0.0015004165006282802
1.20193e-05	0.0015046406211416618
1.20195e-05	0.001508864741655072
1.20198e-05	0.0015130888621684823
1.20200e-05	0.0015173129826818639
1.20203e-05	0.001521537103195274
1.20205e-05	0.0015257612237086842
1.20208e-05	0.0015276165954849783
1.20210e-05	0.00152743848497778
1.20213e-05	0.0015271478670618747
1.20215e-05	0.0015268572491459712
1.20218e-05	0.0015265666312300659
1.20220e-05	0.0015262760133141603
1.20222e-05	0.001525985395398257
1.20225e-05	0.0015256947774823515
1.20228e-05	0.0015254041595664462
1.20230e-05	0.0015251135416505428
1.20233e-05	0.0015248229237346373
1.20235e-05	0.001524532305818732
1.20238e-05	0.0015242416879028265
1.20240e-05	0.0015239510699869231
1.20243e-05	0.0015236604520710176
1.20245e-05	0.0015233698341551123
1.20248e-05	0.001523079216239209
1.20250e-05	0.0015227885983233034
1.20253e-05	0.001522497980407398
1.20255e-05	0.001520632561646835
1.20258e-05	0.0015186735310786478
1.20260e-05	0.0015167145005104605
1.20263e-05	0.0015147554699422865
1.20265e-05	0.0015127964393740992
1.20268e-05	0.001510837408805912
1.20270e-05	0.001508878378237738
1.20273e-05	0.0015069193476695507
1.20275e-05	0.0015049603171013635
1.20278e-05	0.0015030012865331897
1.20280e-05	0.0015010422559650024
1.20283e-05	0.0014990832253968152
1.20285e-05	0.0014971241948286411
1.20288e-05	0.0014951651642604539
1.20290e-05	0.0014932061336922666
1.20293e-05	0.0014912471031240926
1.20295e-05	0.0014892880725559054
1.20298e-05	0.0014873290419877181
1.20300e-05	0.0014773455514555047
1.20303e-05	0.001466885058256332
1.20305e-05	0.0014564245650571597
1.20307e-05	0.001445964071858058
1.20310e-05	0.0014355035786588856
1.20313e-05	0.001425043085459713
1.20315e-05	0.0014145825922606114
1.20318e-05	0.001404122099061439
1.20320e-05	0.0013936616058622666
1.20323e-05	0.001383201112663094
1.20325e-05	0.001367565465828161
1.20328e-05	0.0013454463772862673
1.20330e-05	0.0013233272887443737
1.20333e-05	0.0013012082002026297
1.20335e-05	0.001279089111660736
1.20338e-05	0.0012569700231188422
1.20340e-05	0.0012348509345770984
1.20343e-05	0.0012127318460352047
1.20345e-05	0.0011906127574933109
1.20348e-05	0.0011684936689515671
1.20350e-05	0.0011463745804096734
1.20353e-05	0.001119809316859285
1.20355e-05	0.0010929797567273904
1.20358e-05	0.0010661501965953141
1.20360e-05	0.0010393206364632378
1.20363e-05	0.0010124910763313433
1.20365e-05	0.0009856615161992668
1.20368e-05	0.000960382997666819
1.20370e-05	0.0009351966786076077
1.20373e-05	0.0009100103595482259
1.20375e-05	0.000884824040488844
1.20378e-05	0.0008596377214296327
1.20380e-05	0.0008344514023702509
1.20383e-05	0.0008132957915909584
1.20385e-05	0.0007923797805618665
1.20388e-05	0.0007714637695326329
1.20390e-05	0.000754394118973259
1.20392e-05	0.0007375531098693696
1.20395e-05	0.0007207121007653662
1.20398e-05	0.0007055854017616348
1.20400e-05	0.0006905606074961088
1.20403e-05	0.0006755358132304809
1.20405e-05	0.000662411673091416
1.20408e-05	0.0006494005146474285
1.20410e-05	0.0006363893562035294
1.20413e-05	0.0006260457041021751
1.20415e-05	0.0006158606181407868
1.20418e-05	0.0006056755321794677
1.20420e-05	0.0005954904462180795
1.20423e-05	0.0005853053602566912
1.20425e-05	0.000575120274295372
1.20428e-05	0.0005649351883339837
1.20430e-05	0.0005547501023725955
1.20433e-05	0.0005445650164112764
1.20435e-05	0.0005367678597066533
1.20438e-05	0.0005291126500777881
1.20440e-05	0.0005214574404489749
1.20443e-05	0.0005138022308201098
1.20445e-05	0.0005061470211912447
1.20448e-05	0.0004984918115624314
1.20450e-05	0.0004908366019335663
1.20453e-05	0.0004831813923047012
1.20455e-05	0.00047552618267588797
1.20458e-05	0.00047051843876595706
1.20460e-05	0.00046566806970959517
1.20463e-05	0.0004608177006532661
1.20465e-05	0.00045596733159690417
1.20468e-05	0.0004511169625405423
1.20470e-05	0.0004462665934842132
1.20473e-05	0.0004414162244278513
1.20475e-05	0.00043656585537148933
1.20477e-05	0.0004317154863151603
1.20480e-05	0.0004268651172587984
1.20483e-05	0.00042201474820243644
1.20485e-05	0.0004171643791461074
1.20488e-05	0.00041231401008974544
1.20490e-05	0.00040746364103338355
1.20493e-05	0.00040261327197702165
1.20495e-05	0.00039776290292069255
1.20498e-05	0.00039291253386433065
1.20500e-05	0.0003918991932634648
1.20503e-05	0.00039111393938993634
1.20505e-05	0.00039032868551640255
1.20508e-05	0.00038954343164286875
1.20510e-05	0.0003887581777693402
1.20513e-05	0.0003879729238958064
1.20515e-05	0.00038718767002227263
1.20518e-05	0.00038640241614874414
1.20520e-05	0.0003856171622752103
1.20523e-05	0.0003848319084016765
1.20525e-05	0.000384046654528148
1.20528e-05	0.00038326140065461417
1.20530e-05	0.0003824761467810804
1.20533e-05	0.0003816908929075519
1.20535e-05	0.0003809056390340181
1.20538e-05	0.00038012038516048425
1.20540e-05	0.00037933513128695577
1.20543e-05	0.00038060278379315545
1.20545e-05	0.00038199246841440015
1.20548e-05	0.00038338215303563536
1.20550e-05	0.00038477183765688006
1.20553e-05	0.0003861615222781247
1.20555e-05	0.00038755120689936
1.20558e-05	0.0003889408915206046
1.20560e-05	0.00039033057614184933
1.20562e-05	0.00039172026076308454
1.20565e-05	0.00039310994538432924
1.20568e-05	0.0003946092195226314
1.20570e-05	0.00039611500805470686
1.20573e-05	0.00039762079658679257
1.20575e-05	0.0003991265851188783
1.20578e-05	0.000400632373650964
1.20580e-05	0.00040213816218303953
1.20583e-05	0.00040364395071512525
1.20585e-05	0.00040514973924721096
1.20588e-05	0.0004066555277792865
1.20590e-05	0.0004081613163113722
1.20593e-05	0.0004085594038476393
1.20595e-05	0.0004088916456654655
1.20598e-05	0.00040922388748329395
1.20600e-05	0.00040955612930112243
1.20603e-05	0.0004098883711189486
1.20605e-05	0.00041022061293677706
1.20608e-05	0.0004105528547546055
1.20610e-05	0.00041088509657243163
1.20613e-05	0.0004112173383902601
1.20615e-05	0.00041154958020808854
1.20618e-05	0.00041188182202591474
1.20620e-05	0.00041221406384374317
1.20623e-05	0.0004125463056615716
1.20625e-05	0.0004128785474793978
1.20628e-05	0.0004132107892972262
1.20630e-05	0.0004130425177072405
1.20633e-05	0.00041224720202652027
1.20635e-05	0.00041145188634579457
1.20638e-05	0.00041065657066506893
1.20640e-05	0.00040986125498434866
1.20643e-05	0.000409065939303623
1.20645e-05	0.0004082706236228974
1.20647e-05	0.0004074753079421771
1.20650e-05	0.00040667999226145146
1.20653e-05	0.00040588467658072576
1.20655e-05	0.00040508936090000554
1.20658e-05	0.00040429404521927985
1.20660e-05	0.0004034987295385542
1.20663e-05	0.00040270341385782856
1.20665e-05	0.0004019080981771083
1.20668e-05	0.00040111278249638265
1.20670e-05	0.0004001425204319913
1.20673e-05	0.0003991618589273488
1.20675e-05	0.00039818119742269966
1.20678e-05	0.0003972005359180505
1.20680e-05	0.00039621987441340796
1.20683e-05	0.00039546006585833613
1.20685e-05	0.00039497694227275375
1.20688e-05	0.00039449381868717463
1.20690e-05	0.00039401069510159226
1.20693e-05	0.0003935275715160099
1.20695e-05	0.0003930444479304308
1.20698e-05	0.0003951208671398322
1.20700e-05	0.00039734943474940577
1.20703e-05	0.0003995780023589642
1.20705e-05	0.0004038538635658105
1.20708e-05	0.0004082514232439925
1.20710e-05	0.0004146276543015827
1.20713e-05	0.0004211215046799023
1.20715e-05	0.0004276153550582219
1.20718e-05	0.00043715497336416063
1.20720e-05	0.00044687564303543285
1.20723e-05	0.0004565963127067051
1.20725e-05	0.00046896159328115223
1.20728e-05	0.0004814840790092174
1.20730e-05	0.0004940065647372826
1.20732e-05	0.0005088283434532833
1.20735e-05	0.0005237868003880235
1.20738e-05	0.0005387452573227636
1.20740e-05	0.0005565045702770709
1.20743e-05	0.000574430376154965
1.20745e-05	0.0005923561820328592
1.20748e-05	0.0006102819879107534
1.20750e-05	0.0006282077937885261
1.20753e-05	0.0006461335996664203
1.20755e-05	0.0006655205624770944
1.20758e-05	0.0006849943816942966
1.20760e-05	0.0007044682009116307
1.20763e-05	0.000723942020128965
1.20765e-05	0.0007434158393461672
1.20768e-05	0.0007628896585635014
1.20770e-05	0.0007805349677781947
1.20773e-05	0.0007980715838025655
1.20775e-05	0.000815608199827055
1.20778e-05	0.0008331448158515446
1.20780e-05	0.0008506814318759153
1.20783e-05	0.0008682180479004049
1.20785e-05	0.0008829529216059241
1.20788e-05	0.0008941777675316239
1.20790e-05	0.0009054026134573997
1.20793e-05	0.0009166274593831755
1.20795e-05	0.0009278523053088754
1.20798e-05	0.0009390771512346512
1.20800e-05	0.0009503019971604271
1.20803e-05	0.0009552896538937904
1.20805e-05	0.0009599065497395816
1.20808e-05	0.0009645234455853728
1.20810e-05	0.0009649158903067063
1.20813e-05	0.0009650572185074045
1.20815e-05	0.0009651985467081027
1.20817e-05	0.0009612224868976282
1.20820e-05	0.0009570016747817908
1.20823e-05	0.0009527808626659536
1.20825e-05	0.0009447817262541648
1.20828e-05	0.000936557992699881
1.20830e-05	0.0009283342591455972
1.20833e-05	0.0009151406096098414
1.20835e-05	0.0009016515304497469
1.20838e-05	0.0008881624512895609
1.20840e-05	0.0008746733721293749
1.20843e-05	0.0008611842929692804
1.20845e-05	0.0008476952138090944
1.20848e-05	0.0008322572019396252
1.20850e-05	0.0008143775636919814
1.20853e-05	0.0007964979254442162
1.20855e-05	0.0007786182871964512
1.20858e-05	0.0007607386489488074
1.20860e-05	0.0007428590107010424
1.20863e-05	0.0007249793724532774
1.20865e-05	0.0007066983015121154
1.20868e-05	0.0006883933679722697
1.20870e-05	0.000670088434432424
1.20873e-05	0.0006517835008927023
1.20875e-05	0.0006334785673528566
1.20878e-05	0.0006166238210258702
1.20880e-05	0.0006015858718289778
1.20883e-05	0.0005865479226319835
1.20885e-05	0.0005715099734349892
1.20888e-05	0.0005564720242380968
1.20890e-05	0.0005414340750411025
1.20893e-05	0.0005305530993698182
1.20895e-05	0.0005199192291091003
1.20898e-05	0.0005124810169655089
1.20900e-05	0.0005052327661979203
1.20902e-05	0.0005012696461510022
1.20905e-05	0.0004975018060523999
1.20908e-05	0.0004970266511620158
1.20910e-05	0.0004967472252858017
1.20913e-05	0.0004998761094836186
1.20915e-05	0.0005032075958521818
1.20918e-05	0.000510051863989907
1.20920e-05	0.0005171049444704288
1.20923e-05	0.0005274406832939129
1.20925e-05	0.0005379715550987165
1.20928e-05	0.0005515036462465367
1.20930e-05	0.0005652141406325689
1.20933e-05	0.000582370406193917
1.20935e-05	0.0005997315007480647
1.20938e-05	0.0006170925953023301
1.20940e-05	0.0006379840255076754
1.20943e-05	0.0006590853115214535
1.20945e-05	0.0006801865975353746
1.20948e-05	0.0007044904934598953
1.20950e-05	0.000728984763999826
1.20953e-05	0.0007534790345399225
1.20955e-05	0.000777973305080019
1.20958e-05	0.0008024675756199496
1.20960e-05	0.0008274621852944315
1.20963e-05	0.0008530836207300896
1.20965e-05	0.0008787050561655742
1.20968e-05	0.0009043264916012324
1.20970e-05	0.0009299479270368905
1.20973e-05	0.000955569362472375
1.20975e-05	0.0009771067880671256
1.20978e-05	0.0009984014454741878
1.20980e-05	0.001019696102881106
1.20983e-05	0.0010409907602881685
1.20985e-05	0.0010622854176952309
1.20987e-05	0.001083580075102149
1.20990e-05	0.0011048747325092113
1.20993e-05	0.0011156796955093338
1.20995e-05	0.0011258611134640942
1.20998e-05	0.0011360425314189237
1.21000e-05	0.001146223949373753
1.21003e-05	0.0011564053673285824
1.21005e-05	0.0011665867852833427
1.21008e-05	0.0011767682032381723
1.21010e-05	0.0011777080510941543
1.21013e-05	0.0011780985468886672
1.21015e-05	0.001178489042683183
1.21018e-05	0.0011734174883109897
1.21020e-05	0.0011680212500932508
1.21023e-05	0.0011626250118754752
1.21025e-05	0.0011522123009021167
1.21028e-05	0.0011415013928021804
1.21030e-05	0.0011307904847021714
1.21033e-05	0.001115594353724999
1.21035e-05	0.001100131605018763
1.21038e-05	0.0010846688563124222
1.21040e-05	0.0010641670629574446
1.21043e-05	0.0010433657307216285
1.21045e-05	0.0010225643984856712
1.21048e-05	0.001001763066249714
1.21050e-05	0.0009809617340138979
1.21053e-05	0.0009601604017779406
1.21055e-05	0.0009360046206752454
1.21058e-05	0.0009116494391049352
1.21060e-05	0.0008872942575344599
1.21063e-05	0.0008629390759639845
1.21065e-05	0.0008385838943936743
1.21068e-05	0.0008142287128231991
1.21070e-05	0.0007910577510772664
1.21072e-05	0.0007679571836038163
1.21075e-05	0.0007448566161302097
1.21078e-05	0.0007217560486566031
1.21080e-05	0.000698655481183153
1.21083e-05	0.0006782078738266757
1.21085e-05	0.0006610838996442868
1.21088e-05	0.0006439599254618978
1.21090e-05	0.0006268359512796248
1.21093e-05	0.0006097119770972358
1.21095e-05	0.0005925880029148469
1.21098e-05	0.0005810086180228159
1.21100e-05	0.0005697588233980701
1.21103e-05	0.0005616547723305572
1.21105e-05	0.0005537377155391265
1.21108e-05	0.0005491146076151217
1.21110e-05	0.000544687303822198
1.21113e-05	0.0005435912268590064
1.21115e-05	0.0005426931699625999
1.21118e-05	0.0005449284947347201
1.21120e-05	0.0005473500789478645
1.21123e-05	0.0005527441479801844
1.21125e-05	0.0005583149121679267
1.21128e-05	0.0005667169884056149
1.21130e-05	0.000575287367983192
1.21133e-05	0.0005870585244151791
1.21135e-05	0.0005990199464996183
1.21138e-05	0.0006109813685841386
1.21140e-05	0.000626084761560572
1.21143e-05	0.0006413749245522008
1.21145e-05	0.0006566650875439331
1.21148e-05	0.0006751164144044082
1.21150e-05	0.0006937556521794388
1.21153e-05	0.0007123948899545957
1.21155e-05	0.0007310341277297525
1.21158e-05	0.0007496733655047832
1.21160e-05	0.00076831260327994
1.21163e-05	0.0007879734733234091
1.21165e-05	0.0008076950728518414
1.21168e-05	0.0008274166723804074
1.21170e-05	0.0008471382719089734
1.21173e-05	0.0008668598714375394
1.21175e-05	0.0008865814709659717
1.21178e-05	0.0009033308254212566
1.21180e-05	0.0009199034989723379
1.21183e-05	0.0009364761725233069
1.21185e-05	0.0009530488460743884
1.21188e-05	0.0009696215196254697
1.21190e-05	0.0009825063548109588
1.21193e-05	0.0009907710595030517
1.21195e-05	0.0009990357641951446
1.21198e-05	0.0010073004688871813
1.21200e-05	0.0010155651735792742
1.21203e-05	0.0010238298782713668
1.21205e-05	0.0010233877542789912
1.21208e-05	0.0010224280651709528
1.21210e-05	0.0010214683760629145
1.21213e-05	0.0010140386758537938
1.21215e-05	0.0010062243749863577
1.21218e-05	0.0009984100741189216
1.21220e-05	0.0009839676764861844
1.21223e-05	0.0009691312810163799
1.21225e-05	0.0009542948855465753
1.21228e-05	0.0009336897918150947
1.21230e-05	0.0009127417859749124
1.21233e-05	0.0008917937801347301
1.21235e-05	0.0008656438915229726
1.21238e-05	0.0008391847843475032
1.21240e-05	0.0008127256771720338
1.21243e-05	0.0007821145686982791
1.21245e-05	0.0007512566503799181
1.21248e-05	0.000720398732061557
1.21250e-05	0.0006863175474087626
1.21253e-05	0.0006520447602475912
1.21255e-05	0.0006177719730864197
1.21258e-05	0.0005834991859252483
1.21260e-05	0.0005487273943271615
1.21263e-05	0.0005133304490782862
1.21265e-05	0.00047793350382941075
1.21268e-05	0.00044253655858077527
1.21270e-05	0.0004071396133318999
1.21273e-05	0.00037319786231170503
1.21275e-05	0.00033934261325441054
1.21278e-05	0.0003073956414870522
1.21280e-05	0.0002755621045641205
1.21283e-05	0.00024568891595391263
1.21285e-05	0.00021753147381303576
1.21288e-05	0.0001912874599782601
1.21290e-05	0.0001671896683516525
1.21293e-05	0.00014546132850962334
1.21295e-05	0.00012627194318578258
1.21298e-05	0.00010970923371098676
1.21300e-05	9.58167310276099e-05
1.21303e-05	8.463187415068297e-05
1.21305e-05	7.619184526482591e-05
1.21308e-05	7.053378330714203e-05
1.21310e-05	6.769520935737979e-05
1.21313e-05	6.770763063455398e-05
1.21315e-05	7.05688939585229e-05
1.21318e-05	7.622563192969336e-05
1.21320e-05	8.459678548027234e-05
1.21323e-05	9.55974746641971e-05
1.21325e-05	0.00010914267991673616
1.21328e-05	0.0001251473473344819
1.21330e-05	0.00014352665447546964
1.21333e-05	0.00016419202926931342
1.21335e-05	0.0001870338392789329
1.21338e-05	0.0002119103224761441
1.21340e-05	0.00023866241446500667
1.21343e-05	0.0002671286755337179
1.21345e-05	0.0002977998201425151
1.21348e-05	0.0003285963439305277
1.21350e-05	0.00036169603867592753
1.21353e-05	0.00039493264216112264
1.21355e-05	0.00043026497037584275
1.21358e-05	0.00046572187598297685
1.21360e-05	0.0005011787815898706
1.21363e-05	0.0005366356871970047
1.21365e-05	0.0005722951080121542
1.21368e-05	0.0006079665670571737
1.21370e-05	0.0006436380261024349
1.21373e-05	0.000679309485147696
1.21375e-05	0.0007125695517674121
1.21378e-05	0.0007456862765751811
1.21380e-05	0.0007788030013829502
1.21383e-05	0.0008076575850424766
1.21385e-05	0.0008362588117497762
1.21388e-05	0.0008648600384570758
1.21390e-05	0.0008878826835945857
1.21393e-05	0.0009105737178408217
1.21395e-05	0.0009332647520870578
1.21398e-05	0.0009521975157691882
1.21400e-05	0.0009709068743731922
1.21403e-05	0.0009896162329771961
1.21405e-05	0.0010042658557576985
1.21408e-05	0.0010186741532840383
1.21410e-05	0.0010330824508103778
1.21413e-05	0.0010434727499123557
1.21415e-05	0.0010536242047807717
1.21418e-05	0.0010637756596491876
1.21420e-05	0.0010684536278547274
1.21423e-05	0.0010728062323867975
1.21425e-05	0.0010771588369188675
1.21427e-05	0.001081511441450908
1.21430e-05	0.001085864045982978
1.21433e-05	0.0010902166505150478
1.21435e-05	0.0010945692550471179
1.21438e-05	0.0010989218595791584
1.21440e-05	0.0011004939659243122
1.21443e-05	0.0010985826591705544
1.21445e-05	0.0010966713524168097
1.21448e-05	0.001094760045663052
1.21450e-05	0.0010928487389092944
1.21453e-05	0.0010909374321555498
1.21455e-05	0.0010890261254017921
1.21458e-05	0.0010871148186480345
1.21460e-05	0.0010852035118942896
1.21463e-05	0.0010812010543102249
1.21465e-05	0.0010770742912225276
