Time(s)	Current(A)
8.00000e-07	0.0007331177726772262
8.00250e-07	0.0007250200975139273
8.00500e-07	0.0007211452675812153
8.00750e-07	0.0007191740505924655
8.01000e-07	0.0007172028336037157
8.01250e-07	0.0007152316166149659
8.01500e-07	0.0007132603996262161
8.01750e-07	0.0007112891826374663
8.02000e-07	0.0007093179656487173
8.02250e-07	0.0007073467486599675
8.02500e-07	0.0007085601817996218
8.02750e-07	0.0007112092207631739
8.03000e-07	0.0007138582597267259
8.03250e-07	0.0007165072986902779
8.03500e-07	0.0007191563376538288
8.03750e-07	0.0007218053766173809
8.04000e-07	0.0007244544155809329
8.04250e-07	0.0007288234866708192
8.04500e-07	0.0007339679296346323
8.04750e-07	0.0007391123725984431
8.05000e-07	0.0007442568155622562
8.05250e-07	0.0007494012585260692
8.05500e-07	0.0007545457014898822
8.05750e-07	0.0007596901444536952
8.06000e-07	0.0007652742030861791
8.06250e-07	0.0007710564357059986
8.06500e-07	0.0007768386683258206
8.06750e-07	0.0007825017003320659
8.07000e-07	0.000788110997991314
8.07250e-07	0.0007937202956505621
8.07500e-07	0.0007988748174919377
8.07750e-07	0.0008038243313147317
8.08000e-07	0.0008087738451375257
8.08250e-07	0.0008131032964395217
8.08500e-07	0.0008171532302654517
8.08750e-07	0.0008212031640913816
8.09000e-07	0.0008255496216471675
8.09250e-07	0.0008300297488923553
8.09500e-07	0.000834509876137543
8.09750e-07	0.0008396124196910286
8.10000e-07	0.0008449955417825206
8.10250e-07	0.0008503786638740126
8.10500e-07	0.0008566763029256994
8.10750e-07	0.0008633861963291047
8.11000e-07	0.0008700960897325099
8.11250e-07	0.0008768059831359152
8.11500e-07	0.0008835158765393204
8.11750e-07	0.0008906334252056473
8.12000e-07	0.0008994970338124847
8.12250e-07	0.000908360642419322
8.12500e-07	0.0009172242510261594
8.12750e-07	0.0009260878596329968
8.13000e-07	0.0009349514682398341
8.13250e-07	0.0009449478070914308
8.13500e-07	0.0009554547684826342
8.13750e-07	0.0009659617298738377
8.14000e-07	0.0009764686912650411
8.14250e-07	0.0009871085316227744
8.14500e-07	0.0009983175162097025
8.14750e-07	0.001009526500796626
8.15000e-07	0.0010207354853835541
8.15250e-07	0.0010319444699704822
8.15500e-07	0.0010432661198443286
8.15750e-07	0.0010546385580106192
8.16000e-07	0.0010659164300893251
8.16250e-07	0.0010770235251180069
8.16500e-07	0.0010879004108765907
8.16750e-07	0.0010985060965065779
8.17000e-07	0.0011088245248896738
8.17250e-07	0.0011188244844254525
8.17500e-07	0.0011284446955034378
8.17750e-07	0.0011376128010277956
8.18000e-07	0.0011462558164893602
8.18250e-07	0.0011543007856539118
8.18500e-07	0.001161633712066508
8.18750e-07	0.0011679347482563755
8.19000e-07	0.001172699842065486
8.19250e-07	0.0011755943874793096
8.19500e-07	0.001176563224577489
8.19750e-07	0.0011756495628537141
8.20000e-07	0.0011729036496568245
8.20250e-07	0.001168375579747774
8.20500e-07	0.0011620898945186354
8.20750e-07	0.0011531981863817553
8.21000e-07	0.0011433773316247742
8.21250e-07	0.0011298703252783278
8.21500e-07	0.0011147016416749218
8.21750e-07	0.0010995329580715224
8.22000e-07	0.0010805458159483148
8.22250e-07	0.001059837354035345
8.22500e-07	0.0010391288921223754
8.22750e-07	0.0010150318856270003
8.23000e-07	0.0009894073598937082
8.23250e-07	0.000963782834160427
8.23500e-07	0.0009345285755191989
8.23750e-07	0.0009036380725522586
8.24000e-07	0.0008727475695853181
8.24250e-07	0.0008418570666183778
8.24500e-07	0.0008109665636514505
8.24750e-07	0.0007777344005394457
8.25000e-07	0.0007434466423678872
8.25250e-07	0.0007091588841963289
8.25500e-07	0.0006748711260247705
8.25750e-07	0.0006405833678532121
8.26000e-07	0.0006061586834433608
8.26250e-07	0.0005716722741666369
8.26500e-07	0.0005379245195167178
8.26750e-07	0.0005045097423812413
8.27000e-07	0.0004722608523645459
8.27250e-07	0.00044053753164756735
8.27500e-07	0.00041051861721312763
8.27750e-07	0.00038126803069131584
8.28000e-07	0.0003536821704093682
8.28250e-07	0.0003281630929917901
8.28500e-07	0.0003047055098328184
8.28750e-07	0.0002835008243819524
8.29000e-07	0.00026467302751396934
8.29250e-07	0.00024828682190433616
8.29500e-07	0.0002343856706358521
8.29750e-07	0.00022301094407243722
8.30000e-07	0.00021420415233226137
8.30250e-07	0.00020800677289529846
8.30500e-07	0.0002044583127724293
8.30750e-07	0.00020357938827836566
8.31000e-07	0.00020534836624608766
8.31250e-07	0.00020970645072542932
8.31500e-07	0.00021658159905827998
8.31750e-07	0.00022590039272519103
8.32000e-07	0.00023758956028582058
8.32250e-07	0.00025157578170806853
8.32500e-07	0.00026778451720662233
8.32750e-07	0.00028612939928295564
8.33000e-07	0.00030649759448580274
8.33250e-07	0.0003287529725674626
8.33500e-07	0.00035328618719307465
8.33750e-07	0.0003785880824138386
8.34000e-07	0.0004058300067388858
8.34250e-07	0.0004339464751954596
8.34500e-07	0.00046359769668835403
8.34750e-07	0.0004939407682459354
8.35000e-07	0.0005251544335813597
8.35250e-07	0.0005571707942615602
8.35500e-07	0.0005896510912476722
8.35750e-07	0.0006224052482518568
8.36000e-07	0.0006552430929483139
8.36250e-07	0.0006879745852217707
8.36500e-07	0.0007204091916539989
8.36750e-07	0.000752351734302339
8.37000e-07	0.00078359663832993
8.37250e-07	0.0008139292748799558
8.37500e-07	0.0008431318032436222
8.37750e-07	0.0008709860029001514
8.38000e-07	0.0008972737335715344
8.38250e-07	0.0009217769312737066
8.38500e-07	0.0009443307911772852
8.38750e-07	0.0009650573842181474
8.39000e-07	0.0009843905072145639
8.39250e-07	0.001002642268873739
8.39500e-07	0.0010198191771031767
8.39750e-07	0.0010353534781249968
8.40000e-07	0.0010503017293165171
8.40250e-07	0.001063265817888138
8.40500e-07	0.00107533546741685
8.40750e-07	0.0010852976078363705
8.41000e-07	0.0010943097059500663
8.41250e-07	0.0011033218040637622
8.41500e-07	0.001109739723429773
8.41750e-07	0.0011149882150820827
8.42000e-07	0.0011202367067343927
8.42250e-07	0.0011254851983867025
8.42500e-07	0.0011307336900390126
8.42750e-07	0.0011330887723581624
8.43000e-07	0.001134139537052972
8.43250e-07	0.0011351903017477818
8.43500e-07	0.0011362410664425917
8.43750e-07	0.0011372918311374017
8.44000e-07	0.0011361863793703198
8.44250e-07	0.0011341089285497655
8.44500e-07	0.0011320314777292103
8.44750e-07	0.0011299540269086548
8.45000e-07	0.0011278765760880996
8.45250e-07	0.0011257991252675444
8.45500e-07	0.0011225097012388672
8.45750e-07	0.001118673932799993
8.46000e-07	0.0011148381643611173
8.46250e-07	0.0011110023959222416
8.46500e-07	0.001107166627483366
8.46750e-07	0.0011033308590444903
8.47000e-07	0.0010993627703014867
8.47250e-07	0.0010953350329969184
8.47500e-07	0.00109130729569235
8.47750e-07	0.0010875000654804127
8.48000e-07	0.001083934748614327
8.48250e-07	0.0010805954436211708
8.48500e-07	0.0010774617037965044
8.48750e-07	0.0010742640228943933
8.49000e-07	0.0010704901896246588
8.49250e-07	0.0010654635769365881
8.49500e-07	0.0010599779705567811
8.49750e-07	0.0010532892845409431
8.50000e-07	0.001046058263240988
8.50250e-07	0.001037823043974972
8.50500e-07	0.0010291351431300107
8.50750e-07	0.0010188020116913856
8.51000e-07	0.001007727228100453
8.51250e-07	0.0009966524445095249
8.51500e-07	0.0009824892582848853
8.51750e-07	0.0009669338535655819
8.52000e-07	0.0009513784488462786
8.52250e-07	0.0009358230441269752
8.52500e-07	0.0009202676394076719
8.52750e-07	0.000903844380477494
8.53000e-07	0.0008837039477248244
8.53250e-07	0.0008635635149721548
8.53500e-07	0.0008434230822194852
8.53750e-07	0.0008232826494668156
8.54000e-07	0.0008031422167141459
8.54250e-07	0.0007811698564387229
8.54500e-07	0.0007583716830551663
8.54750e-07	0.0007355735096716098
8.55000e-07	0.0007127753362880533
8.55250e-07	0.0006899771629044969
8.55500e-07	0.0006671841056693188
8.55750e-07	0.0006444129618068501
8.56000e-07	0.0006216418179443813
8.56250e-07	0.0005988706740819126
8.56500e-07	0.0005760995302194438
8.56750e-07	0.0005533283863569751
8.57000e-07	0.0005320626275941006
8.57250e-07	0.0005114754801477514
8.57500e-07	0.0004908883327014021
8.57750e-07	0.00047187693230918225
8.58000e-07	0.00045357586164137897
8.58250e-07	0.00043699321967766245
8.58500e-07	0.0004211852267825353
8.58750e-07	0.0004069546158876772
8.59000e-07	0.0003934350717332716
8.59250e-07	0.0003809384020463061
8.59500e-07	0.0003689028331030589
8.59750e-07	0.0003580102820932097
8.60000e-07	0.0003476329912017263
8.60250e-07	0.00033860528315746467
8.60500e-07	0.000330185952459958
8.60750e-07	0.00032298984233015407
8.61000e-07	0.0003163451467985772
8.61250e-07	0.00031053829597017086
8.61500e-07	0.0003051091364695347
8.61750e-07	0.0003007944719460919
8.62000e-07	0.00029698220970094844
8.62250e-07	0.000293169947455805
8.62500e-07	0.00029073409588586745
8.62750e-07	0.000288918715357299
8.63000e-07	0.00028710333482872977
8.63250e-07	0.0002861962354255807
8.63500e-07	0.0002856985793273242
8.63750e-07	0.0002852009232290677
8.64000e-07	0.0002855514598060136
8.64250e-07	0.0002862843524645751
8.64500e-07	0.00028701724512313656
8.64750e-07	0.0002886292218603333
8.65000e-07	0.00029063748018960786
8.65250e-07	0.00029264573851888235
8.65500e-07	0.00029465399684815597
8.65750e-07	0.00029666225517743046
8.66000e-07	0.000298670513506705
8.66250e-07	0.00030077348121582896
8.66500e-07	0.0003032821060308529
8.66750e-07	0.0003057907308458758
8.67000e-07	0.00030829935566089976
8.67250e-07	0.00031080798047592367
8.67500e-07	0.00031331660529094763
8.67750e-07	0.00031582523010597154
8.68000e-07	0.0003179998171884847
8.68250e-07	0.00032002382367504376
8.68500e-07	0.0003220478301616037
8.68750e-07	0.0003244678078998955
8.69000e-07	0.0003270662851945641
8.69250e-07	0.00032966476248923263
8.69500e-07	0.0003335729419815414
8.69750e-07	0.00033807152105523684
8.70000e-07	0.00034257010012893416
8.70250e-07	0.0003481695496285947
8.70500e-07	0.0003542652596062662
8.70750e-07	0.0003603609695839377
8.71000e-07	0.0003679868086091182
8.71250e-07	0.00037630241325487706
8.71500e-07	0.0003846180179006359
8.71750e-07	0.00039444768298207994
8.72000e-07	0.0004049598701277303
8.72250e-07	0.0004154720572733807
8.72500e-07	0.0004271702457218763
8.72750e-07	0.0004394030707266825
8.73000e-07	0.0004516358957314886
8.73250e-07	0.00046544528055226505
8.73500e-07	0.0004799653614817183
8.73750e-07	0.0004944854424111716
8.74000e-07	0.0005090055233406188
8.74250e-07	0.0005235256042700721
8.74500e-07	0.0005383057954709959
8.74750e-07	0.0005542000851921374
8.75000e-07	0.000570094374913279
8.75250e-07	0.0005859886646344138
8.75500e-07	0.0006018829543555553
8.75750e-07	0.0006177772440766969
8.76000e-07	0.0006336248999908917
8.76250e-07	0.000649451533889433
8.76500e-07	0.0006648625103135151
8.76750e-07	0.0006800861128449865
8.77000e-07	0.0006947475145694318
8.77250e-07	0.0007091554822523596
8.77500e-07	0.0007227791973625798
8.77750e-07	0.0007360493798976321
8.78000e-07	0.0007465310675463176
8.78250e-07	0.000755755731868169
8.78500e-07	0.0007649803961900243
8.78750e-07	0.0007742050605118796
8.79000e-07	0.0007834297248337349
8.79250e-07	0.0007926543891555902
8.79500e-07	0.0008018790534774416
8.79750e-07	0.0008111037177992969
8.80000e-07	0.0008203283821211522
8.80250e-07	0.0008286960401409499
8.80500e-07	0.0008333929878594794
8.80750e-07	0.0008380899355780088
8.81000e-07	0.0008427868832965363
8.81250e-07	0.0008474838310150657
8.81500e-07	0.0008521807787335951
8.81750e-07	0.0008568777264521245
8.82000e-07	0.0008615746741706539
8.82250e-07	0.0008662716218891814
8.82500e-07	0.0008709685696077108
8.82750e-07	0.0008736708545697364
8.83000e-07	0.0008754739671408197
8.83250e-07	0.0008772770797119031
8.83500e-07	0.0008790801922829864
8.83750e-07	0.0008808833048540689
8.84000e-07	0.0008826864174251522
8.84250e-07	0.0008844895299962356
8.84500e-07	0.0008862926425673189
8.84750e-07	0.0008880957551384022
8.85000e-07	0.0008898988677094855
8.85250e-07	0.0008914272918384146
8.85500e-07	0.0008917791765511902
8.85750e-07	0.0008921310612639658
8.86000e-07	0.0008924829459767413
8.86250e-07	0.0008928348306895169
8.86500e-07	0.0008931867154022922
8.86750e-07	0.0008935386001150678
8.87000e-07	0.0008938904848278434
8.87250e-07	0.000894242369540619
8.87500e-07	0.0008945942542533945
8.87750e-07	0.00089494613896617
8.88000e-07	0.0008951228403694888
8.88250e-07	0.0008952070902492072
8.88500e-07	0.0008952115601667158
8.88750e-07	0.0008947738884992452
8.89000e-07	0.0008932442155037741
8.89250e-07	0.0008901831815881292
8.89500e-07	0.0008850222118719218
8.89750e-07	0.0008791426560430524
8.90000e-07	0.0008713413263368663
8.90250e-07	0.0008626736817579027
8.90500e-07	0.0008521690197123164
8.90750e-07	0.0008408362500669431
8.91000e-07	0.0008264009945763883
8.91250e-07	0.0008105671720317241
8.91500e-07	0.00079473334948706
8.91750e-07	0.0007754271286804003
8.92000e-07	0.0007545555883041046
8.92250e-07	0.0007336840479278178
8.92500e-07	0.0007099967357593115
8.92750e-07	0.0006850401041298942
8.93000e-07	0.0006600834725004768
8.93250e-07	0.0006323313437484523
8.93500e-07	0.0006033190351372281
8.93750e-07	0.0005743067265260163
8.94000e-07	0.0005434201076274676
8.94250e-07	0.0005116885699290099
8.94500e-07	0.00047995703223055225
8.94750e-07	0.0004471381985056465
8.95000e-07	0.0004138292234951712
8.95250e-07	0.0003805202484846818
8.95500e-07	0.00034683548996241654
8.95750e-07	0.00031298133229853476
8.96000e-07	0.000279127174634653
8.96250e-07	0.0002458673800773128
8.96500e-07	0.0002128755179781747
8.96750e-07	0.00018059884451493866
8.97000e-07	0.00014921469513050892
8.97250e-07	0.00011876515174855704
8.97500e-07	8.944516621105187e-05
8.97750e-07	6.147064395721332e-05
8.98000e-07	3.505899762972106e-05
8.98250e-07	1.0427598866251216e-05
8.98500e-07	-1.2282973214510747e-05
8.98750e-07	-3.333966427266004e-05
8.99000e-07	-5.343610724637538e-05
8.99250e-07	-7.306011630869703e-05
8.99500e-07	-9.224135863501779e-05
8.99750e-07	-0.00011084057215934623
9.00000e-07	-0.00012870591379183924
9.00250e-07	-0.00014568557667925207
9.00500e-07	-0.0001614146550650793
9.00750e-07	-0.00017671064609885414
9.01000e-07	-0.00019153878174560688
9.01250e-07	-0.00020615601324547626
9.01500e-07	-0.00022043762440451575
9.01750e-07	-0.00023456794154488636
9.02000e-07	-0.00024869825868525095
9.02250e-07	-0.0002619143299887111
9.02500e-07	-0.0002747182691598465
9.02750e-07	-0.00028752220833098193
9.03000e-07	-0.0002999134456358307
9.03250e-07	-0.0003121186414042566
9.03500e-07	-0.00032432383717267727
9.03750e-07	-0.00033565513360754525
9.04000e-07	-0.0003465924856773023
9.04250e-07	-0.00035752983774705937
9.04500e-07	-0.0003684671898168164
9.04750e-07	-0.00037940454188657344
9.05000e-07	-0.0003903418939563259
9.05250e-07	-0.0004012792460260829
9.05500e-07	-0.00041221659809583997
9.05750e-07	-0.00042315395016559703
9.06000e-07	-0.00043233734270777506
9.06250e-07	-0.0004407300692704818
9.06500e-07	-0.0004491227958331921
9.06750e-07	-0.00045751552239590233
9.07000e-07	-0.00046590824895861264
9.07250e-07	-0.0004743009755213229
9.07500e-07	-0.00048269370208403313
9.07750e-07	-0.0004910864286467399
9.08000e-07	-0.0004994791552094502
9.08250e-07	-0.0005050780998869307
9.08500e-07	-0.0005094176379156375
9.08750e-07	-0.0005137571759443443
9.09000e-07	-0.0005180967139730509
9.09250e-07	-0.0005224362520017559
9.09500e-07	-0.0005267757900304627
9.09750e-07	-0.0005311153280591694
9.10000e-07	-0.0005354548660878762
9.10250e-07	-0.0005397944041165829
9.10500e-07	-0.0005441339421452878
9.10750e-07	-0.0005484734801739946
9.11000e-07	-0.00055213406998843
9.11250e-07	-0.000552886603936398
9.11500e-07	-0.0005536391378843659
9.11750e-07	-0.0005543916718323339
9.12000e-07	-0.0005551442057803015
9.12250e-07	-0.0005558967397282695
9.12500e-07	-0.0005566492736762374
9.12750e-07	-0.0005574018076242054
9.13000e-07	-0.0005581543415721733
9.13250e-07	-0.0005589068755201413
9.13500e-07	-0.0005596594094681089
9.13750e-07	-0.0005604119434160768
9.14000e-07	-0.0005599085333491082
9.14250e-07	-0.0005588389573078831
9.14500e-07	-0.000557769381266658
9.14750e-07	-0.0005566998052254332
9.15000e-07	-0.0005556302291842081
9.15250e-07	-0.0005545606531429829
9.15500e-07	-0.0005534910771017577
9.15750e-07	-0.0005524215010605326
9.16000e-07	-0.0005512845079987607
9.16250e-07	-0.0005498587558564266
9.16500e-07	-0.0005484330037140919
9.16750e-07	-0.0005470072515717573
9.17000e-07	-0.0005455814994294226
9.17250e-07	-0.000544155747287088
9.17500e-07	-0.0005427299951447533
9.17750e-07	-0.0005413042430024192
9.18000e-07	-0.0005398784908600846
9.18250e-07	-0.0005385748107632646
9.18500e-07	-0.0005373261594239025
9.18750e-07	-0.0005360775080845405
9.19000e-07	-0.0005335581725875197
9.19250e-07	-0.0005304660264193673
9.19500e-07	-0.0005273738802512148
9.19750e-07	-0.000522540051697114
9.20000e-07	-0.0005169210915661542
9.20250e-07	-0.0005113021314351945
9.20500e-07	-0.0005040546312038064
9.20750e-07	-0.0004960730027138155
9.21000e-07	-0.0004880913742238244
9.21250e-07	-0.00047790944925155804
9.21500e-07	-0.0004667356544294115
9.21750e-07	-0.00045556185960726975
9.22000e-07	-0.0004425446613325531
9.22250e-07	-0.00042869647672463004
9.22500e-07	-0.000414848292116707
9.22750e-07	-0.000399369099943617
9.23000e-07	-0.00038315466720551656
9.23250e-07	-0.0003669402344674229
9.23500e-07	-0.00034921426894047577
9.23750e-07	-0.0003308069207851213
9.24000e-07	-0.00031239957262976683
9.24250e-07	-0.0002931157529147492
9.24500e-07	-0.0002734368293029096
9.24750e-07	-0.0002537579056910783
9.25000e-07	-0.00023355253610677208
9.25250e-07	-0.00021310985037353324
9.25500e-07	-0.0001926671646402944
9.25750e-07	-0.00017225911034303006
9.26000e-07	-0.000151866667522445
9.26250e-07	-0.00013147422470185128
9.26500e-07	-0.00011165292474036468
9.26750e-07	-9.208908980074702e-05
9.27000e-07	-7.302892860822179e-05
9.27250e-07	-5.4606054165065654e-05
9.27500e-07	-3.686681592452873e-05
9.27750e-07	-1.9941782123014636e-05
9.28000e-07	-3.962503964779813e-06
9.28250e-07	1.0939484839129729e-05
9.28500e-07	2.469084818899036e-05
9.28750e-07	3.752497977537083e-05
9.29000e-07	4.9990918557506175e-05
9.29250e-07	6.247132707645757e-05
9.29500e-07	7.499556126724951e-05
9.29750e-07	8.73946712932912e-05
9.30000e-07	9.973466630311584e-05
9.30250e-07	0.00011166620061063644
9.30500e-07	0.00012341360525257392
9.30750e-07	0.00013509071891225523
9.31000e-07	0.0001467361461575915
9.31250e-07	0.00015838157340292776
9.31500e-07	0.00017052320513218018
9.31750e-07	0.00018288852047449648
9.32000e-07	0.000195253835816818
9.32250e-07	0.0002076191511591395
9.32500e-07	0.00021998446650146102
9.32750e-07	0.00023245513263348122
9.33000e-07	0.00024537703492106384
9.33250e-07	0.00025829893720864095
9.33500e-07	0.00027122083949622354
9.33750e-07	0.0002841427417838062
9.34000e-07	0.00029706464407138877
9.34250e-07	0.0003100265915623092
9.34500e-07	0.00032300659099765243
9.34750e-07	0.00033598659043300113
9.35000e-07	0.0003489665898683499
9.35250e-07	0.0003619465893036986
9.35500e-07	0.00037492658873904735
9.35750e-07	0.0003876784495156862
9.36000e-07	0.0003994531518715203
9.36250e-07	0.0004112278542273595
9.36500e-07	0.0004230025565831986
9.36750e-07	0.0004347772589390377
9.37000e-07	0.0004465519612948768
9.37250e-07	0.000458326663650716
9.37500e-07	0.0004689648539089257
9.37750e-07	0.0004790907168090934
9.38000e-07	0.0004886333352395651
9.38250e-07	0.0004971796747681401
9.38500e-07	0.0005053954241716019
9.38750e-07	0.0005120553668457747
9.39000e-07	0.0005180139686781645
9.39250e-07	0.0005217044287783649
9.39500e-07	0.0005243724351239946
9.39750e-07	0.0005247704140326763
9.40000e-07	0.000524145089131483
9.40250e-07	0.0005213283145118476
9.40500e-07	0.0005175236580677302
9.40750e-07	0.000511363234802217
9.41000e-07	0.0005041408573399044
9.41250e-07	0.0004943400193484816
9.41500e-07	0.00048337683924607833
9.41750e-07	0.00047005762150297556
9.42000e-07	0.0004556763274806613
9.42250e-07	0.00043921168076215813
9.42500e-07	0.00042180788118733594
9.42750e-07	0.0004024413237477746
9.43000e-07	0.0003821899762972437
9.43250e-07	0.0003600598851471682
9.43500e-07	0.00033708287666286426
9.43750e-07	0.000312589922038164
9.44000e-07	0.00028741359529390557
9.44250e-07	0.0002611155951893079
9.44500e-07	0.00023431195686890303
9.44750e-07	0.0002066855594834182
9.45000e-07	0.00017868827121256473
9.45250e-07	0.00015010048318952386
