Time(s)	Current(A)
3.55000e-06	-0.0011582711394281145
3.55025e-06	-0.0011512585714795764
3.55050e-06	-0.001143849652705565
3.55075e-06	-0.0011361257871406523
3.55100e-06	-0.0011281630731732276
3.55125e-06	-0.0011200105663933622
3.55150e-06	-0.0011117123633853348
3.55175e-06	-0.0011032983877926322
3.55200e-06	-0.001094856680616002
3.55225e-06	-0.0010863929374732185
3.55250e-06	-0.0010781178015358396
3.55275e-06	-0.0010699925359412678
3.55300e-06	-0.0010621180222478237
3.55325e-06	-0.0010546522876028884
3.55350e-06	-0.0010475940360105223
3.55375e-06	-0.0010409998586402268
3.55400e-06	-0.00103499157843272
3.55425e-06	-0.0010299428272524459
3.55450e-06	-0.001026443873917533
3.55475e-06	-0.0010249014991166453
3.55500e-06	-0.0010253819871522212
3.55525e-06	-0.0010278205953894286
3.55550e-06	-0.0010321485356961405
3.55575e-06	-0.001038296798686484
3.55600e-06	-0.0010462372443181607
3.55625e-06	-0.0010560994806105436
3.55650e-06	-0.0010688045535854026
3.55675e-06	-0.001083056757567726
3.55700e-06	-0.0010991970769839595
3.55725e-06	-0.0011179879193552596
3.55750e-06	-0.0011392535114132431
3.55775e-06	-0.0011617593288824526
3.55800e-06	-0.0011861622786046285
3.55825e-06	-0.0012120727203683275
3.55850e-06	-0.0012399285895060709
3.55875e-06	-0.00126933032677131
3.55900e-06	-0.0013000487791028953
3.55925e-06	-0.0013328569681226477
3.55950e-06	-0.0013664943022496268
3.55975e-06	-0.0014011652298098315
3.56000e-06	-0.0014366574674671401
3.56025e-06	-0.0014729059827183187
3.56050e-06	-0.0015097554484050841
3.56075e-06	-0.0015470345103834923
3.56100e-06	-0.001584786880496397
3.56125e-06	-0.0016226491552143916
3.56150e-06	-0.0016603935612987163
3.56175e-06	-0.0016977924037030884
3.56200e-06	-0.0017346282100688159
3.56225e-06	-0.001770722102626108
3.56250e-06	-0.0018059285635160097
3.56275e-06	-0.001840073872751727
3.56300e-06	-0.001872931969952736
3.56325e-06	-0.0019042565949980263
3.56350e-06	-0.0019338008443130288
3.56375e-06	-0.0019613179174154706
3.56400e-06	-0.0019865434991384427
3.56425e-06	-0.0020091599163879277
3.56450e-06	-0.0020288435847563057
3.56475e-06	-0.002045392321870304
3.56500e-06	-0.00205874014481724
3.56525e-06	-0.002067961966968179
3.56550e-06	-0.0020750347798457803
3.56575e-06	-0.0020793819834545044
3.56600e-06	-0.0020787773712587767
3.56625e-06	-0.002075958956317344
3.56650e-06	-0.002069335508582419
3.56675e-06	-0.0020596885201085782
3.56700e-06	-0.002046407948142654
3.56725e-06	-0.0020302400718320347
3.56750e-06	-0.002010714306138664
3.56775e-06	-0.001988520307108968
3.56800e-06	-0.0019632234195304
3.56825e-06	-0.0019354609264118033
3.56850e-06	-0.0019048300144756509
3.56875e-06	-0.0018719198104488028
3.56900e-06	-0.0018365512582662205
3.56925e-06	-0.0017992292627880971
3.56950e-06	-0.001759924118494903
3.56975e-06	-0.0017190431320055475
3.57000e-06	-0.0016766412870706767
3.57025e-06	-0.0016330309433610886
3.57050e-06	-0.0015883490253003547
3.57075e-06	-0.0015428156168895847
3.57100e-06	-0.0014968229345271613
3.57125e-06	-0.0014503591796229801
3.57150e-06	-0.001403854881978653
3.57175e-06	-0.001357579336879573
3.57200e-06	-0.001311799061812547
3.57225e-06	-0.0012667724297838045
3.57250e-06	-0.001222756858870325
3.57275e-06	-0.0011800283520784964
3.57300e-06	-0.0011388839493105714
3.57325e-06	-0.001099627624294988
3.57350e-06	-0.0010625635835906286
3.57375e-06	-0.0010279960071104127
3.57400e-06	-0.0009962110029059432
3.57425e-06	-0.000967405866040405
3.57450e-06	-0.0009416459467097213
3.57475e-06	-0.0009189473097753507
3.57500e-06	-0.0008993583311060685
3.57525e-06	-0.0008829487012143195
3.57550e-06	-0.0008707228639161624
3.57575e-06	-0.0008606919377109531
3.57600e-06	-0.0008544292634614731
3.57625e-06	-0.0008511609033011791
3.57650e-06	-0.0008506440352213702
3.57675e-06	-0.0008540676430137555
3.57700e-06	-0.0008605963007733557
3.57725e-06	-0.0008701537066644643
3.57750e-06	-0.0008826642040509494
3.57775e-06	-0.0008980521096505717
3.57800e-06	-0.000916234631214974
3.57825e-06	-0.0009370941535046979
3.57850e-06	-0.0009604612390967225
3.57875e-06	-0.0009861471825701681
3.57900e-06	-0.0010139759354363155
3.57925e-06	-0.00104377982228175
3.57950e-06	-0.0010753916191583092
3.57975e-06	-0.001108644023925397
3.58000e-06	-0.0011433653499828213
3.58025e-06	-0.001179362020964045
3.58050e-06	-0.0012164081254352644
3.58075e-06	-0.001254265612625058
3.58100e-06	-0.0012927044135196278
3.58125e-06	-0.0013314998083249414
3.58150e-06	-0.0013704271670159274
3.58175e-06	-0.0014092620026290013
3.58200e-06	-0.001447776998855833
3.58225e-06	-0.0014857311810252097
3.58250e-06	-0.0015228633830691887
3.58275e-06	-0.0015589047539559132
3.58300e-06	-0.0015935915736589228
3.58325e-06	-0.001626663356234026
3.58350e-06	-0.0016578597587985297
3.58375e-06	-0.0016869205931082571
3.58400e-06	-0.0017128703906608357
3.58425e-06	-0.0017371400166710039
3.58450e-06	-0.001758468927137986
3.58475e-06	-0.0017774610973638149
3.58500e-06	-0.0017934219622055476
3.58525e-06	-0.0018069741026500417
3.58550e-06	-0.0018165503231996078
3.58575e-06	-0.0018229672133489266
3.58600e-06	-0.0018293841034982346
3.58625e-06	-0.0018325474355652027
3.58650e-06	-0.0018315519054003648
3.58675e-06	-0.001827782048844445
3.58700e-06	-0.0018213156497005553
3.58725e-06	-0.001812221106885576
3.58750e-06	-0.0018005662772090619
3.58775e-06	-0.0017864190441267563
3.58800e-06	-0.0017698527783303335
3.58825e-06	-0.0017509680925370515
3.58850e-06	-0.0017299077186569418
3.58875e-06	-0.0017068326440107264
3.58900e-06	-0.0016818960884304728
3.58925e-06	-0.0016548268194287508
3.58950e-06	-0.001626694824078676
3.58975e-06	-0.0015970544251698604
3.59000e-06	-0.0015662154243412962
3.59025e-06	-0.0015344715630113371
3.59050e-06	-0.0015015533030591855
3.59075e-06	-0.0014679319773436756
3.59100e-06	-0.0014338080657254736
3.59125e-06	-0.001399378218583158
3.59150e-06	-0.0013648389583029385
3.59175e-06	-0.0013303867806250343
3.59200e-06	-0.0012962202188810975
3.59225e-06	-0.001262548653982064
3.59250e-06	-0.0012295979462686242
3.59275e-06	-0.0011976009512844397
3.59300e-06	-0.0011667874774667173
3.59325e-06	-0.0011373851167696834
3.59350e-06	-0.0011096212016707017
3.59375e-06	-0.001083723117939507
3.59400e-06	-0.001059930717809398
3.59425e-06	-0.0010385187649808692
3.59450e-06	-0.0010197547131146917
3.59475e-06	-0.0010038032284524327
3.59500e-06	-0.0009915308120371604
3.59525e-06	-0.00098117665869089
3.59550e-06	-0.0009740816962359628
3.59575e-06	-0.0009695765396965784
3.59600e-06	-0.0009684025139937698
3.59625e-06	-0.0009698754588531838
3.59650e-06	-0.0009747545557815158
3.59675e-06	-0.0009823402363594263
3.59700e-06	-0.0009931747936255148
3.59725e-06	-0.0010065909609741496
3.59750e-06	-0.001023017707996708
3.59775e-06	-0.0010418367104313192
3.59800e-06	-0.0010634424289230407
3.59825e-06	-0.0010872625171680153
3.59850e-06	-0.0011136472741910149
3.59875e-06	-0.001142069958599691
3.59900e-06	-0.0011726898277559926
3.59925e-06	-0.001205055615530317
3.59950e-06	-0.001239200441174864
3.59975e-06	-0.0012747589191502318
3.60000e-06	-0.001311687304937629
3.60025e-06	-0.0013497042416793982
3.60050e-06	-0.0013886831886896624
3.60075e-06	-0.001428426564654125
3.60100e-06	-0.0014686330094184606
3.60125e-06	-0.0015092074161577162
3.60150e-06	-0.0015497974888093707
3.60175e-06	-0.001590233555476083
3.60200e-06	-0.001630240188984564
3.60225e-06	-0.0016695865748749933
3.60250e-06	-0.0017080408664721537
3.60275e-06	-0.0017453554366159833
3.60300e-06	-0.0017812661064097975
3.60325e-06	-0.0018155034907990112
3.60350e-06	-0.0018477980101212483
3.60375e-06	-0.0018771659796364315
3.60400e-06	-0.001904934060690523
3.60425e-06	-0.001929790584907908
3.60450e-06	-0.0019523335388647802
3.60475e-06	-0.0019719589680183146
3.60500e-06	-0.0019892660846683595
3.60525e-06	-0.002003522273000792
3.60550e-06	-0.002015354144234652
3.60575e-06	-0.0020231825694089784
3.60600e-06	-0.0020278297914461
3.60625e-06	-0.002032477013483222
3.60650e-06	-0.0020339852580722752
3.60675e-06	-0.002031524354115303
3.60700e-06	-0.0020264488065255587
3.60725e-06	-0.002018815838349063
3.60750e-06	-0.0020086818710476333
3.60775e-06	-0.0019961030168064086
3.60800e-06	-0.001981143820806816
3.60825e-06	-0.0019639087422572868
3.60850e-06	-0.0019445553580908815
3.60875e-06	-0.0019232527518615974
3.60900e-06	-0.0019001481985886505
3.60925e-06	-0.00187537694448355
3.60950e-06	-0.0018490737602659718
3.60975e-06	-0.0018213735712939614
3.61000e-06	-0.0017924164275923958
3.61025e-06	-0.0017623670797360397
3.61050e-06	-0.00173142392517344
3.61075e-06	-0.0016997925208315976
3.61100e-06	-0.001667664525006175
3.61125e-06	-0.0016352241698593473
3.61150e-06	-0.001602655404922739
3.61175e-06	-0.0015701422179508452
3.61200e-06	-0.0015378717886123175
3.61225e-06	-0.0015060467828530238
3.61250e-06	-0.0014748909574532436
3.61275e-06	-0.0014446325257664577
3.61300e-06	-0.0014154909531814512
3.61325e-06	-0.0013876809859977935
3.61350e-06	-0.0013624730669806997
3.61375e-06	-0.0013388308613474767
3.61400e-06	-0.0013151886557142937
3.61425e-06	-0.001293604749866659
3.61450e-06	-0.0012751421882251036
3.61475e-06	-0.0012578602560896807
3.61500e-06	-0.0012405783239542868
3.61525e-06	-0.001224840776161606
3.61550e-06	-0.0012116548881389057
3.61575e-06	-0.001199521443013853
3.61600e-06	-0.0011887897240443618
3.61625e-06	-0.0011800201339580605
3.61650e-06	-0.0011726201400641377
3.61675e-06	-0.0011664078282851839
3.61700e-06	-0.0011613482096704368
3.61725e-06	-0.0011574675894905967
3.61750e-06	-0.0011547941651535096
3.61775e-06	-0.0011533562006824146
3.61800e-06	-0.0011531606163868355
3.61825e-06	-0.0011541252926424194
3.61850e-06	-0.0011560736969330027
3.61875e-06	-0.0011588573913135815
3.61900e-06	-0.0011624201953651927
3.61925e-06	-0.0011667442112668505
3.61950e-06	-0.0011718128049506328
3.61975e-06	-0.0011776093805716315
3.62000e-06	-0.0011841037979447577
3.62025e-06	-0.001191210305804155
3.62050e-06	-0.0011987839354487516
3.62075e-06	-0.0012066975282968796
3.62100e-06	-0.0012148815535504324
3.62125e-06	-0.0012233350747759728
3.62150e-06	-0.001231914883994618
3.62175e-06	-0.0012406038032113356
3.62200e-06	-0.0012494104953491437
3.62225e-06	-0.0012582113895532264
3.62250e-06	-0.0012668814769818647
3.62275e-06	-0.0012753067120757455
3.62300e-06	-0.001283294215798557
3.62325e-06	-0.0012910350197927953
3.62350e-06	-0.0012982461343165237
3.62375e-06	-0.0013050363490003842
3.62400e-06	-0.0013110197746050523
3.62425e-06	-0.0013163621125287885
3.62450e-06	-0.001321704450452534
3.62475e-06	-0.0013259863591720156
3.62500e-06	-0.0013294256336555041
3.62525e-06	-0.0013328649081389983
3.62550e-06	-0.001336178547857287
3.62575e-06	-0.0013374222626326459
3.62600e-06	-0.0013386659774080026
3.62625e-06	-0.0013399096921833614
3.62650e-06	-0.0013400509270663872
3.62675e-06	-0.0013393161135550164
3.62700e-06	-0.0013385813000436444
3.62725e-06	-0.001337067439848552
3.62750e-06	-0.0013349345365296981
3.62775e-06	-0.0013322068474959543
3.62800e-06	-0.001329006532091271
3.62825e-06	-0.0013252650129327035
3.62850e-06	-0.001321093444498025
3.62875e-06	-0.001316464061668874
3.62900e-06	-0.001311470892100395
3.62925e-06	-0.0013060848422088535
3.62950e-06	-0.0013003866032437297
3.62975e-06	-0.001294358634123868
3.63000e-06	-0.0012880686560778978
3.63025e-06	-0.0012815301965529457
3.63050e-06	-0.0012747942896167174
3.63075e-06	-0.0012679099619458763
3.63100e-06	-0.0012609076967533199
3.63125e-06	-0.0012538453626795229
3.63150e-06	-0.0012467352968989428
3.63175e-06	-0.0012396524437486818
3.63200e-06	-0.0012325912141956201
3.63225e-06	-0.0012256102602802574
3.63250e-06	-0.0012187842359170223
3.63275e-06	-0.0012121492147534917
3.63300e-06	-0.0012057525592639126
3.63325e-06	-0.001199639942477489
3.63350e-06	-0.0011938572071310764
3.63375e-06	-0.0011884501942152892
3.63400e-06	-0.0011834928215084491
3.63425e-06	-0.001179167237982324
3.63450e-06	-0.0011757450136771622
3.63475e-06	-0.0011734110945137491
3.63500e-06	-0.0011721986190211936
3.63525e-06	-0.0011723780283902272
3.63550e-06	-0.0011732723308925026
3.63575e-06	-0.0011753256838649153
3.63600e-06	-0.0011783000371299352
3.63625e-06	-0.0011832489764750224
3.63650e-06	-0.0011897669539287906
3.63675e-06	-0.001196284931382559
3.63700e-06	-0.001202802908836316
3.63725e-06	-0.001211564020055686
3.63750e-06	-0.0012221075617280153
3.63775e-06	-0.0012326511034003265
3.63800e-06	-0.0012448122667445998
3.63825e-06	-0.00125825881849222
3.63850e-06	-0.00127170537023984
3.63875e-06	-0.001286428385713527
3.63900e-06	-0.0013021656999563965
3.63925e-06	-0.0013187061273569767
3.63950e-06	-0.0013358847214916957
3.63975e-06	-0.0013536466194925324
3.64000e-06	-0.0013718720202011482
3.64025e-06	-0.0013905264333784447
3.64050e-06	-0.0014095217468179308
3.64075e-06	-0.0014287937922739889
3.64100e-06	-0.0014482857334764208
3.64125e-06	-0.0014678012870684167
3.64150e-06	-0.0014873356034479936
3.64175e-06	-0.0015066329526319732
3.64200e-06	-0.001525742003840884
3.64225e-06	-0.0015443945704740232
3.64250e-06	-0.0015626844070632702
3.64275e-06	-0.0015802994742113473
3.64300e-06	-0.0015973783586229215
3.64325e-06	-0.0016135011682980652
3.64350e-06	-0.0016288642654889221
3.64375e-06	-0.0016433306108286977
3.64400e-06	-0.0016564916078410197
3.64425e-06	-0.0016689408468027647
3.64450e-06	-0.0016814381654706076
3.64475e-06	-0.001694526516120217
3.64500e-06	-0.0017083888169116587
3.64525e-06	-0.0017226130230090827
3.64550e-06	-0.001737181295354889
3.64575e-06	-0.001752022968319283
3.64600e-06	-0.00176698834685225
3.64625e-06	-0.0017823158468806412
3.64650e-06	-0.0017989550910997363
3.64675e-06	-0.0018164700867094568
3.64700e-06	-0.0018339850823191775
3.64725e-06	-0.0018526574634227695
3.64750e-06	-0.0018722495218019726
3.64775e-06	-0.0018925392808853067
3.64800e-06	-0.0019133834442583843
3.64825e-06	-0.001934227607631497
3.64850e-06	-0.001956214247393538
3.64875e-06	-0.0019791087174146666
3.64900e-06	-0.002002003187435756
3.64925e-06	-0.002025667460279243
3.64950e-06	-0.002049943430924492
3.64975e-06	-0.002074474748372576
3.65000e-06	-0.002099208968529643
3.65025e-06	-0.00212394318868671
3.65050e-06	-0.002148889768988628
3.65075e-06	-0.0021740050941042493
3.65100e-06	-0.0021991152296836954
3.65125e-06	-0.0022242212415735704
3.65150e-06	-0.00224897092693579
3.65175e-06	-0.0022734374694628697
3.65200e-06	-0.0022972516224235564
3.65225e-06	-0.002320547376058983
3.65250e-06	-0.002343089803649456
3.65275e-06	-0.002365033626152546
3.65300e-06	-0.0023859682784772183
3.65325e-06	-0.0024061010278186128
3.65350e-06	-0.0024248687345384315
3.65375e-06	-0.0024425517562626556
3.65400e-06	-0.0024585672502754506
3.65425e-06	-0.0024732576997367915
3.65450e-06	-0.0024858075952643908
3.65475e-06	-0.0024966565719360683
3.65500e-06	-0.002507505548607764
3.65525e-06	-0.002515428182898561
3.65550e-06	-0.002521025498095045
3.65575e-06	-0.0025266228132915197
3.65600e-06	-0.0025318875006025815
3.65625e-06	-0.002531671899426558
3.65650e-06	-0.0025314562982505346
3.65675e-06	-0.002531240697074511
3.65700e-06	-0.0025290783711408786
3.65725e-06	-0.002524544009905015
3.65750e-06	-0.0025185459712448997
3.65775e-06	-0.0025111156374975022
3.65800e-06	-0.0025022900959971828
3.65825e-06	-0.002492131056435778
3.65850e-06	-0.0024807333830714445
3.65875e-06	-0.0024681980768028536
3.65900e-06	-0.0024546106349829554
3.65925e-06	-0.002440049082523493
3.65950e-06	-0.0024245908720903295
3.65975e-06	-0.002408313616226298
3.66000e-06	-0.0023912985300109948
3.66025e-06	-0.0023736420437474675
3.66050e-06	-0.0023554615621581006
3.66075e-06	-0.0023368779868233715
3.66100e-06	-0.0023180027497133483
3.66125e-06	-0.0022989428231857388
3.66150e-06	-0.0022798045575523618
3.66175e-06	-0.002260694279971326
3.66200e-06	-0.002241720572953425
3.66225e-06	-0.0022230018686510197
3.66250e-06	-0.002204669424563192
3.66275e-06	-0.0021868568518483306
3.66300e-06	-0.0021696918076679994
3.66325e-06	-0.002153298856416581
3.66350e-06	-0.002137802562488374
3.66375e-06	-0.002123327230800953
3.66400e-06	-0.002110005912037287
3.66425e-06	-0.0020979978417903175
3.66450e-06	-0.002087464436371663
3.66475e-06	-0.002078506204891372
3.66500e-06	-0.00207115633515965
3.66525e-06	-0.0020658802287779315
3.66550e-06	-0.00206168427133332
3.66575e-06	-0.00206003516216974
3.66600e-06	-0.0020604098199368992
3.66625e-06	-0.002060784477704059
3.66650e-06	-0.0020614955661449894
3.66675e-06	-0.002067749596802649
3.66700e-06	-0.00207400362746032
3.66725e-06	-0.0020802576581179905
3.66750e-06	-0.0020888843632488117
3.66775e-06	-0.0020993964339791403
3.66800e-06	-0.0021114680900683924
3.66825e-06	-0.002124779017966084
3.66850e-06	-0.0021395310800594834
3.66875e-06	-0.0021554282907468823
3.66900e-06	-0.002172560546174671
3.66925e-06	-0.0021906741881743026
3.66950e-06	-0.0022097844805963234
3.66975e-06	-0.0022296867276005343
3.67000e-06	-0.0022503536527600934
3.67025e-06	-0.0022716282035779643
3.67050e-06	-0.0022934414282508074
3.67075e-06	-0.002315682691901165
3.67100e-06	-0.0023381815511533577
3.67125e-06	-0.00236088510004669
3.67150e-06	-0.0023835453163129636
3.67175e-06	-0.0024061710997712775
3.67200e-06	-0.002428456319918165
3.67225e-06	-0.002450470922936926
3.67250e-06	-0.002471851753850352
3.67275e-06	-0.002492728979174828
3.67300e-06	-0.0025129275429060963
3.67325e-06	-0.00253202104195221
3.67350e-06	-0.0025500141879064597
3.67375e-06	-0.002566754217220504
3.67400e-06	-0.0025820222530520127
3.67425e-06	-0.0025953494561112792
3.67450e-06	-0.002606068072123535
3.67475e-06	-0.002613726534972379
3.67500e-06	-0.002618237719813475
3.67525e-06	-0.0026196518822356294
3.67550e-06	-0.0026180237640862705
3.67575e-06	-0.002613408183658896
3.67600e-06	-0.0026058183398653748
3.67625e-06	-0.0025951109311400183
3.67650e-06	-0.002580036769049461
3.67675e-06	-0.002562627206916208
3.67700e-06	-0.002542373843828481
3.67725e-06	-0.002518100719208026
3.67750e-06	-0.002490771896630425
3.67775e-06	-0.0024598337992753076
3.67800e-06	-0.002427074062051921
3.67825e-06	-0.0023913505807192023
3.67850e-06	-0.0023532720602721865
3.67875e-06	-0.0023130324872237215
3.67900e-06	-0.002269808032796309
3.67925e-06	-0.0022244568811459445
3.67950e-06	-0.0021772450279600006
3.67975e-06	-0.0021284386253101794
3.68000e-06	-0.00207828742493714
3.68025e-06	-0.0020269795903500943
3.68050e-06	-0.001974654452580389
3.68075e-06	-0.0019215047210225605
3.68100e-06	-0.0018678124225284785
3.68125e-06	-0.0018138933971049824
3.68150e-06	-0.0017600646170270588
3.68175e-06	-0.0017066428483854899
3.68200e-06	-0.001653934672806313
3.68225e-06	-0.0016022082852570941
3.68250e-06	-0.001551701192009172
3.68275e-06	-0.001502684173935769
3.68300e-06	-0.0014554839941629816
3.68325e-06	-0.0014104485433879708
3.68350e-06	-0.0013679264854996086
3.68375e-06	-0.0013282663546484272
3.68400e-06	-0.001292641069452246
3.68425e-06	-0.0012591607213867507
3.68450e-06	-0.0012289100811595148
3.68475e-06	-0.0012012258191371388
3.68500e-06	-0.0011759066233570908
3.68525e-06	-0.0011541337563108582
3.68550e-06	-0.0011354212266900736
3.68575e-06	-0.0011198924480588916
3.68600e-06	-0.0011076357130970211
3.68625e-06	-0.0010985883978030411
3.68650e-06	-0.0010925149500042486
3.68675e-06	-0.0010892011754011122
3.68700e-06	-0.0010885682010585444
3.68725e-06	-0.0010905962317798023
3.68750e-06	-0.001095267688851292
3.68775e-06	-0.0011032784250450064
3.68800e-06	-0.0011130152861472812
3.68825e-06	-0.001124783785792684
3.68850e-06	-0.001139857247071913
3.68875e-06	-0.0011562740775482587
3.68900e-06	-0.0011746842737384554
3.68925e-06	-0.0011946784306392487
3.68950e-06	-0.0012164289860582976
3.68975e-06	-0.001239575204212838
3.69000e-06	-0.0012641901259739952
3.69025e-06	-0.0012899721034300583
3.69050e-06	-0.0013167195940913354
3.69075e-06	-0.0013442342971974706
3.69100e-06	-0.001372279987158056
3.69125e-06	-0.0014007476078809573
3.69150e-06	-0.0014293865806014666
3.69175e-06	-0.001458161712397022
3.69200e-06	-0.0014868322426040612
3.69225e-06	-0.0015151884608565515
3.69250e-06	-0.0015429827812899585
3.69275e-06	-0.0015699711918916387
3.69300e-06	-0.0015955809143172691
3.69325e-06	-0.0016204142233157645
3.69350e-06	-0.0016430937126288743
3.69375e-06	-0.0016640617419044108
