Time(s)	Current(A)
9.55000e-06	0.012955115704411668
9.55025e-06	0.01294981109798723
9.55050e-06	0.012944506491562792
9.55075e-06	0.01293920188513839
9.55100e-06	0.012933897278713953
9.55125e-06	0.012928592672289515
9.55150e-06	0.012923288065865113
9.55175e-06	0.012917983459440676
9.55200e-06	0.012912678853016238
9.55225e-06	0.012907374246591836
9.55250e-06	0.012902069640167399
9.55275e-06	0.012896093088774032
9.55300e-06	0.012886248388278697
9.55325e-06	0.012876403687783295
9.55350e-06	0.012866558987287894
9.55375e-06	0.012856714286792558
9.55400e-06	0.012846869586297155
9.55425e-06	0.012837024885801754
9.55450e-06	0.012827180185306352
9.55475e-06	0.012817335484811017
9.55500e-06	0.012807490784315614
9.55525e-06	0.012797646083820212
9.55550e-06	0.012787801383324877
9.55575e-06	0.012777956682829475
9.55600e-06	0.012768111982334074
9.55625e-06	0.012752516963536145
9.55650e-06	0.012733798348361853
9.55675e-06	0.012715079733187558
9.55700e-06	0.012696361118013392
9.55725e-06	0.012677642502839098
9.55750e-06	0.012658923887664805
9.55775e-06	0.012640205272490638
9.55800e-06	0.012621486657316345
9.55825e-06	0.01260276804214205
9.55850e-06	0.012584049426967885
9.55875e-06	0.01256533081179359
9.55900e-06	0.012546612196619298
9.55925e-06	0.012527898289991448
9.55950e-06	0.012509211488796305
9.55975e-06	0.01249052468760116
9.56000e-06	0.01247183788640614
9.56025e-06	0.012453151085210997
9.56050e-06	0.012434464284015852
9.56075e-06	0.012415777482820835
9.56100e-06	0.01239709068162569
9.56125e-06	0.012378403880430544
9.56150e-06	0.012359717079235527
9.56175e-06	0.012341030278040382
9.56200e-06	0.012322343476845238
9.56225e-06	0.01230365667565022
9.56250e-06	0.012292734509786034
9.56275e-06	0.01228603012553194
9.56300e-06	0.01227932574127789
9.56325e-06	0.012272621357023797
9.56350e-06	0.012265916972769702
9.56375e-06	0.012259212588515606
9.56400e-06	0.012252508204261558
9.56425e-06	0.012245803820007463
9.56450e-06	0.012239099435753367
9.56475e-06	0.01224253437608651
9.56500e-06	0.012251477038928269
9.56525e-06	0.012260419701770026
9.56550e-06	0.012269362364611722
9.56575e-06	0.01227830502745348
9.56600e-06	0.012287247690295237
9.56625e-06	0.012296190353136933
9.56650e-06	0.012305133015978692
9.56675e-06	0.012314075678820448
9.56700e-06	0.012331148354707682
9.56725e-06	0.0123526372868715
9.56750e-06	0.012374126219035319
9.56775e-06	0.012395615151198993
9.56800e-06	0.012417104083362811
9.56825e-06	0.01243859301552663
9.56850e-06	0.012460081947690304
9.56875e-06	0.012481570879854123
9.56900e-06	0.012503059812017941
9.56925e-06	0.012524548744181616
9.56950e-06	0.012546037676345434
9.56975e-06	0.012567374459321446
9.57000e-06	0.012587835373331895
9.57025e-06	0.012608296287342483
9.57050e-06	0.012628757201353069
9.57075e-06	0.012649218115363518
9.57100e-06	0.012669679029374104
9.57125e-06	0.012690139943384691
9.57150e-06	0.01271060085739514
9.57175e-06	0.012731061771405726
9.57200e-06	0.012751522685416313
9.57225e-06	0.012771983599426901
9.57250e-06	0.012792444513437348
9.57275e-06	0.012804950438236215
9.57300e-06	0.01281313518041871
9.57325e-06	0.012821319922601146
9.57350e-06	0.01282950466478364
9.57375e-06	0.012837689406966134
9.57400e-06	0.01284587414914857
9.57425e-06	0.012854058891331064
9.57450e-06	0.012862243633513556
9.57475e-06	0.012870428375695995
9.57500e-06	0.012878613117878489
9.57525e-06	0.012886797860060981
9.57550e-06	0.01289498260224342
9.57575e-06	0.012903167344425912
9.57600e-06	0.012911352086608405
9.57625e-06	0.012919536828790844
9.57650e-06	0.012927721570973336
9.57675e-06	0.01293590631315583
9.57700e-06	0.012944091055338267
9.57725e-06	0.01295227579752076
9.57750e-06	0.012960460539703254
9.57775e-06	0.012964489947845732
9.57800e-06	0.012966262161572968
9.57825e-06	0.012968034375300204
9.57850e-06	0.012969806589027428
9.57875e-06	0.012971578802754664
9.57900e-06	0.0129733510164819
9.57925e-06	0.012975123230209126
9.57950e-06	0.012976895443936362
9.57975e-06	0.012978667657663598
9.58000e-06	0.012980439871390822
9.58025e-06	0.012982212085118058
9.58050e-06	0.012983984298845296
9.58075e-06	0.012985756512572532
9.58100e-06	0.012987528726299756
9.58125e-06	0.012989300940026993
9.58150e-06	0.012991073153754229
9.58175e-06	0.012992845367481453
9.58200e-06	0.01299461758120869
9.58225e-06	0.012996389794935927
9.58250e-06	0.01299816200866315
9.58275e-06	0.013002035444940604
9.58300e-06	0.01300705027388607
9.58325e-06	0.0130120651028315
9.58350e-06	0.013017079931776964
9.58375e-06	0.01302209476072243
9.58400e-06	0.01302710958966786
9.58425e-06	0.013032124418613324
9.58450e-06	0.013037139247558789
9.58475e-06	0.01304215407650422
9.58500e-06	0.013048614187733417
9.58525e-06	0.013063394276992575
9.58550e-06	0.013078174366251633
9.58575e-06	0.013092954455510791
9.58600e-06	0.01310773454476995
9.58625e-06	0.013122514634029008
9.58650e-06	0.013137294723288166
9.58675e-06	0.013152074812547324
9.58700e-06	0.013166854901806382
9.58725e-06	0.01318163499106554
9.58750e-06	0.013200827686113335
9.58775e-06	0.013222417326641152
9.58800e-06	0.013244006967169117
9.58825e-06	0.01326559660769708
9.58850e-06	0.013287186248224897
9.58875e-06	0.013308775888752861
9.58900e-06	0.013330365529280824
9.58925e-06	0.013351955169808787
9.58950e-06	0.013373544810336604
9.58975e-06	0.01339513445086457
9.59000e-06	0.013414992229468318
9.59025e-06	0.013433909253603781
9.59050e-06	0.01345282627773937
9.59075e-06	0.01347174330187496
9.59100e-06	0.013490660326010422
9.59125e-06	0.013509577350146011
9.59150e-06	0.0135284943742816
9.59175e-06	0.013547411398417062
9.59200e-06	0.013566328422552652
9.59225e-06	0.013585245446688241
9.59250e-06	0.01360067850116226
9.59275e-06	0.013614219049091573
9.59300e-06	0.013627759597020886
9.59325e-06	0.013641300144950106
9.59350e-06	0.013654840692879417
9.59375e-06	0.01366838124080873
9.59400e-06	0.01368192178873795
9.59425e-06	0.013695462336667262
9.59450e-06	0.013709002884596574
9.59475e-06	0.013722983585554427
9.59500e-06	0.013739498091549375
9.59525e-06	0.013756012597544323
9.59550e-06	0.013772527103539158
9.59575e-06	0.013789041609534106
9.59600e-06	0.013805556115529052
9.59625e-06	0.013822070621523888
9.59650e-06	0.013838585127518835
9.59675e-06	0.013855099633513782
9.59700e-06	0.013871614139508617
9.59725e-06	0.013890155357595396
9.59750e-06	0.013909797493965537
9.59775e-06	0.01392943963033568
9.59800e-06	0.013949081766705689
9.59825e-06	0.013968723903075832
9.59850e-06	0.013988366039445973
9.59875e-06	0.014008008175815982
9.59900e-06	0.014027650312186125
9.59925e-06	0.014047292448556268
9.59950e-06	0.014066934584926277
9.59975e-06	0.014086576721296418
9.60000e-06	0.014106218857666561
9.60025e-06	0.01412241858377205
9.60050e-06	0.01413674837856637
9.60075e-06	0.014151078173360691
9.60100e-06	0.014165407968154915
9.60125e-06	0.014179737762949236
9.60150e-06	0.014194067557743557
9.60175e-06	0.014208397352537781
9.60200e-06	0.014222727147332102
9.60225e-06	0.014237056942126423
9.60250e-06	0.014251386736920647
9.60275e-06	0.014265716531714968
9.60300e-06	0.01428004632650929
9.60325e-06	0.014286821751835849
9.60350e-06	0.014289493612822135
9.60375e-06	0.014292165473808422
9.60400e-06	0.01429483733479469
9.60425e-06	0.014297509195780976
9.60450e-06	0.014300181056767263
9.60475e-06	0.014302852917753532
9.60500e-06	0.01430552477873982
9.60525e-06	0.014308196639726106
9.60550e-06	0.014310868500712373
9.60575e-06	0.01431354036169866
9.60600e-06	0.014316212222684947
9.60625e-06	0.014318884083671234
9.60650e-06	0.014321555944657503
9.60675e-06	0.01432422780564379
9.60700e-06	0.014326899666630076
9.60725e-06	0.014329571527616346
9.60750e-06	0.014332243388602632
9.60775e-06	0.014330677309908188
9.60800e-06	0.014326809165074832
9.60825e-06	0.01432294102024145
9.60850e-06	0.014319072875408068
9.60875e-06	0.014315204730574712
9.60900e-06	0.01431133658574133
9.60925e-06	0.014307468440907948
9.60950e-06	0.014303600296074592
9.60975e-06	0.01429973215124121
9.61000e-06	0.014295864006407826
9.61025e-06	0.01429199586157447
9.61050e-06	0.014288127716741088
9.61075e-06	0.014284259571907706
9.61100e-06	0.01428039142707435
9.61125e-06	0.014276523282240968
9.61150e-06	0.014272655137407586
9.61175e-06	0.01426878699257423
9.61200e-06	0.014264918847740848
9.61225e-06	0.014258452118767223
9.61250e-06	0.01425057382827796
9.61275e-06	0.014242695537788645
9.61300e-06	0.014234817247299329
9.61325e-06	0.014226938956810067
9.61350e-06	0.01421906066632075
9.61375e-06	0.014211182375831435
9.61400e-06	0.01420330408534217
9.61425e-06	0.014187568309483764
9.61450e-06	0.014167564315488277
9.61475e-06	0.014147560321492789
9.61500e-06	0.014127556327497437
9.61525e-06	0.014107552333501949
9.61550e-06	0.014087548339506461
9.61575e-06	0.014067544345511109
9.61600e-06	0.014047540351515621
9.61625e-06	0.014018823136391583
9.61650e-06	0.013985372863971631
9.61675e-06	0.013951922591551454
9.61700e-06	0.013918472319131275
9.61725e-06	0.013885022046711323
9.61750e-06	0.013851571774291145
9.61775e-06	0.013818121501870966
9.61800e-06	0.013784671229451016
9.61825e-06	0.013751220957030836
9.61850e-06	0.013717770684610659
9.61875e-06	0.013684320412190707
9.61900e-06	0.013650547071455006
9.61925e-06	0.013614913940889073
9.61950e-06	0.01357928081032338
9.61975e-06	0.013543647679757447
9.62000e-06	0.013508014549191512
9.62025e-06	0.01347238141862582
9.62050e-06	0.013436748288059887
9.62075e-06	0.013401115157493954
9.62100e-06	0.013365482026928261
9.62125e-06	0.013329848896362328
9.62150e-06	0.013294215765796395
9.62175e-06	0.013258582635230703
9.62200e-06	0.01323523644388219
9.62225e-06	0.013218564568090011
9.62250e-06	0.013201892692297944
9.62275e-06	0.013185220816505765
9.62300e-06	0.013168548940713586
9.62325e-06	0.013151877064921404
9.62350e-06	0.01313520518912934
9.62375e-06	0.013118533313337158
9.62400e-06	0.013101861437544979
9.62425e-06	0.013085189561752914
9.62450e-06	0.013068517685960733
9.62475e-06	0.013051845810168553
9.62500e-06	0.013035173934376486
9.62525e-06	0.013018502058584307
9.62550e-06	0.013001830182792128
9.62575e-06	0.01298786490298856
9.62600e-06	0.012989480537356874
9.62625e-06	0.012991096171725187
9.62650e-06	0.01299271180609349
9.62675e-06	0.012994327440461802
9.62700e-06	0.012995943074830115
9.62725e-06	0.012997558709198418
9.62750e-06	0.012999174343566731
9.62775e-06	0.013000789977935046
9.62800e-06	0.013002405612303347
9.62825e-06	0.013004021246671662
9.62850e-06	0.013005636881039975
9.62875e-06	0.013007252515408277
9.62900e-06	0.01300886814977659
9.62925e-06	0.013010483784144903
9.62950e-06	0.013012099418513206
9.62975e-06	0.013016101546063072
9.63000e-06	0.013021400026454577
9.63025e-06	0.013026698506846046
9.63050e-06	0.013031996987237551
9.63075e-06	0.013037295467629056
9.63100e-06	0.013042593948020527
9.63125e-06	0.013047892428412032
9.63150e-06	0.013053190908803537
9.63175e-06	0.013058489389195042
9.63200e-06	0.01306378786958651
9.63225e-06	0.013069086349978016
9.63250e-06	0.013074384830369521
9.63275e-06	0.013078586892122353
9.63300e-06	0.013076477260226331
9.63325e-06	0.01307436762833031
9.63350e-06	0.013072257996434303
9.63375e-06	0.013070148364538282
9.63400e-06	0.01306803873264226
9.63425e-06	0.013065929100746254
9.63450e-06	0.013063819468850232
9.63475e-06	0.01306170983695421
9.63500e-06	0.013059600205058204
9.63525e-06	0.013057490573162182
9.63550e-06	0.013055380941266162
9.63575e-06	0.013053271309370154
9.63600e-06	0.013045677660822513
9.63625e-06	0.013035105072034885
9.63650e-06	0.013024532483247326
9.63675e-06	0.013013959894459698
9.63700e-06	0.01300338730567207
9.63725e-06	0.012992814716884512
9.63750e-06	0.012982242128096882
9.63775e-06	0.012971669539309253
9.63800e-06	0.012961096950521696
9.63825e-06	0.012950524361734066
9.63850e-06	0.012939951772946438
9.63875e-06	0.01292937918415888
9.63900e-06	0.01291880659537125
9.63925e-06	0.012907248770775086
9.63950e-06	0.01289515576206438
9.63975e-06	0.012883062753353592
9.64000e-06	0.012870969744642805
9.64025e-06	0.012858876735932017
9.64050e-06	0.012846783727221311
9.64075e-06	0.012834690718510523
9.64100e-06	0.012822597709799734
9.64125e-06	0.01281050470108903
9.64150e-06	0.01279841169237824
9.64175e-06	0.012786318683667454
9.64200e-06	0.012774225674956747
9.64225e-06	0.01276213266624596
9.64250e-06	0.012749833470901983
9.64275e-06	0.01273742227413692
9.64300e-06	0.012725011077371774
9.64325e-06	0.012712599880606627
9.64350e-06	0.012700188683841564
9.64375e-06	0.012687777487076416
9.64400e-06	0.01267536629031127
9.64425e-06	0.012662955093546207
9.64450e-06	0.012650543896781061
9.64475e-06	0.01263696257141582
9.64500e-06	0.012616645230263967
9.64525e-06	0.012596327889111978
9.64550e-06	0.012576010547959987
9.64575e-06	0.012555693206808135
9.64600e-06	0.012535375865656144
9.64625e-06	0.012515058524504153
9.64650e-06	0.0124947411833523
9.64675e-06	0.01247442384220031
9.64700e-06	0.01245410650104832
9.64725e-06	0.012429606984867822
9.64750e-06	0.012402835694132057
9.64775e-06	0.012376064403396291
9.64800e-06	0.012349293112660708
9.64825e-06	0.012322521821924943
9.64850e-06	0.012295750531189179
9.64875e-06	0.012268979240453413
9.64900e-06	0.01224220794971783
9.64925e-06	0.012215436658982065
9.64950e-06	0.0121886653682463
9.64975e-06	0.012161894077510716
9.65000e-06	0.012137386951534003
9.65025e-06	0.01211410972910113
9.65050e-06	0.012090832506668413
9.65075e-06	0.01206755528423554
9.65100e-06	0.012044278061802667
9.65125e-06	0.01202100083936995
9.65150e-06	0.011997723616937078
9.65175e-06	0.011974446394504203
9.65200e-06	0.011951169172071488
9.65225e-06	0.011927891949638616
9.65250e-06	0.011904614727205741
9.65275e-06	0.011892727998849892
9.65300e-06	0.011887028633395321
9.65325e-06	0.01188132926794075
9.65350e-06	0.011875629902486218
9.65375e-06	0.011869930537031647
9.65400e-06	0.011864231171577077
9.65425e-06	0.011858531806122546
9.65450e-06	0.011852832440667975
9.65475e-06	0.01185032310073415
9.65500e-06	0.011866177607542236
9.65525e-06	0.011882032114350431
9.65550e-06	0.011897886621158624
9.65575e-06	0.01191374112796671
9.65600e-06	0.011929595634774904
9.65625e-06	0.0119454501415831
9.65650e-06	0.011961304648391185
9.65675e-06	0.011977159155199379
9.65700e-06	0.012004368769080275
9.65725e-06	0.012037746523497608
9.65750e-06	0.012071124277914715
9.65775e-06	0.012104502032332046
9.65800e-06	0.01213787978674938
9.65825e-06	0.012171257541166486
9.65850e-06	0.01220463529558382
9.65875e-06	0.012238013050001151
9.65900e-06	0.012271390804418258
9.65925e-06	0.012304768558835591
9.65950e-06	0.012338146313252925
9.65975e-06	0.01237122807869831
9.66000e-06	0.012404149061725638
9.66025e-06	0.012437070044752967
9.66050e-06	0.012469991027780071
9.66075e-06	0.0125029120108074
9.66100e-06	0.012535832993834728
9.66125e-06	0.012568753976861833
9.66150e-06	0.012601674959889161
9.66175e-06	0.01263459594291649
9.66200e-06	0.012667516925943595
9.66225e-06	0.012700437908970923
9.66250e-06	0.012722930123401597
9.66275e-06	0.012739757388137922
9.66300e-06	0.01275658465287436
9.66325e-06	0.012773411917610798
9.66350e-06	0.012790239182347124
9.66375e-06	0.012807066447083562
9.66400e-06	0.01282389371182
9.66425e-06	0.012840720976556325
9.66450e-06	0.012857548241292763
9.66475e-06	0.012874375506029202
9.66500e-06	0.012891202770765527
9.66525e-06	0.012908030035501965
9.66550e-06	0.012924857300238403
9.66575e-06	0.012941684564974843
9.66600e-06	0.012957326061626926
9.66625e-06	0.012966141511514234
9.66650e-06	0.012974956961401543
9.66675e-06	0.012983772411288792
9.66700e-06	0.0129925878611761
9.66725e-06	0.01300140331106341
9.66750e-06	0.013010218760950657
9.66775e-06	0.013019034210837966
9.66800e-06	0.013027849660725274
9.66825e-06	0.013036665110612524
9.66850e-06	0.013045480560499832
9.66875e-06	0.01305429601038714
9.66900e-06	0.01306311146027439
9.66925e-06	0.013071926910161699
9.66950e-06	0.013080742360049007
9.66975e-06	0.013085566975708085
9.67000e-06	0.013088223753914717
9.67025e-06	0.01309088053212135
9.67050e-06	0.013093537310327964
9.67075e-06	0.013096194088534595
9.67100e-06	0.013098850866741228
9.67125e-06	0.013101507644947842
9.67150e-06	0.013104164423154473
9.67175e-06	0.013106821201361106
9.67200e-06	0.01310947797956772
9.67225e-06	0.013112134757774351
9.67250e-06	0.013114791535980984
9.67275e-06	0.013117448314187598
9.67300e-06	0.01312010509239423
9.67325e-06	0.013122761870600862
9.67350e-06	0.013125418648807476
9.67375e-06	0.01312807542701411
9.67400e-06	0.01313073220522074
9.67425e-06	0.013133388983427374
9.67450e-06	0.013136045761633987
9.67475e-06	0.013138702539840619
9.67500e-06	0.013141359318047252
9.67525e-06	0.013144016096253866
9.67550e-06	0.013146672874460497
9.67575e-06	0.013148662460456855
9.67600e-06	0.013146811257270696
9.67625e-06	0.013144960054084524
9.67650e-06	0.013143108850898352
9.67675e-06	0.013141257647712193
9.67700e-06	0.013139406444526021
9.67725e-06	0.01313755524133985
9.67750e-06	0.01313570403815369
9.67775e-06	0.013133852834967518
9.67800e-06	0.013132001631781347
9.67825e-06	0.013130150428595187
9.67850e-06	0.013128299225409016
9.67875e-06	0.013126448022222842
9.67900e-06	0.013124596819036684
9.67925e-06	0.013122745615850511
9.67950e-06	0.01312089441266434
9.67975e-06	0.01311904320947818
9.68000e-06	0.013117192006292008
9.68025e-06	0.013115340803105837
9.68050e-06	0.013113489599919677
9.68075e-06	0.013111638396733506
9.68100e-06	0.013109787193547334
9.68125e-06	0.013107935990361174
9.68150e-06	0.013106084787175003
9.68175e-06	0.013104233583988831
9.68200e-06	0.013100256683862851
9.68225e-06	0.01309512509647672
9.68250e-06	0.013089993509090589
9.68275e-06	0.013084861921704457
9.68300e-06	0.01307973033431836
9.68325e-06	0.013072536915913877
9.68350e-06	0.013053474266793893
9.68375e-06	0.013034411617674038
9.68400e-06	0.013015348968554054
9.68425e-06	0.01299628631943407
9.68450e-06	0.012977223670314215
9.68475e-06	0.012944071267207905
9.68500e-06	0.012903265252185806
9.68525e-06	0.012862459237163984
9.68550e-06	0.012821653222141885
9.68575e-06	0.012780847207119786
9.68600e-06	0.012740041192097963
9.68625e-06	0.012699235177075864
9.68650e-06	0.012658429162053765
9.68675e-06	0.01260397169126583
9.68700e-06	0.012542098693944641
9.68725e-06	0.012480225696623453
9.68750e-06	0.012418352699302682
9.68775e-06	0.012356479701981494
9.68800e-06	0.012294606704660305
9.68825e-06	0.012232733707339537
9.68850e-06	0.012170860710018348
9.68875e-06	0.01210418805767113
9.68900e-06	0.012034908213109388
9.68925e-06	0.011965628368547174
9.68950e-06	0.011896348523984962
9.68975e-06	0.011827068679423219
9.69000e-06	0.011757788834861007
9.69025e-06	0.011688508990298795
9.69050e-06	0.011620851333662653
9.69075e-06	0.011562532038216574
9.69100e-06	0.011504212742770496
9.69125e-06	0.01144589344732442
9.69150e-06	0.011387574151878736
9.69175e-06	0.011329254856432658
9.69200e-06	0.01127093556098658
9.69225e-06	0.011212616265540896
9.69250e-06	0.011175302369273684
9.69275e-06	0.011149398691641593
9.69300e-06	0.011123495014009674
9.69325e-06	0.011097591336377582
9.69350e-06	0.011071687658745489
9.69375e-06	0.01104578398111357
9.69400e-06	0.011019880303481479
9.69425e-06	0.010993976625849385
9.69450e-06	0.010968072948217467
9.69475e-06	0.010942169270585375
9.69500e-06	0.010916265592953282
9.69525e-06	0.010890361915321365
9.69550e-06	0.010864458237689271
9.69575e-06	0.010838554560057178
9.69600e-06	0.010816992541963113
9.69625e-06	0.010820423919702858
9.69650e-06	0.010823855297442604
9.69675e-06	0.010827286675182325
9.69700e-06	0.01083071805292207
9.69725e-06	0.010834149430661815
9.69750e-06	0.010837580808401538
9.69775e-06	0.010841012186141282
9.69800e-06	0.010844443563881027
9.69825e-06	0.010847874941620749
9.69850e-06	0.010851306319360494
9.69875e-06	0.01085473769710024
9.69900e-06	0.010858169074839961
9.69925e-06	0.010861600452579707
9.69950e-06	0.010865031830319451
9.69975e-06	0.010873390702493624
9.70000e-06	0.010884426209772332
9.70025e-06	0.010895461717051115
9.70050e-06	0.010906497224329898
9.70075e-06	0.010917532731608606
9.70100e-06	0.01092856823888739
9.70125e-06	0.010939603746166173
9.70150e-06	0.010948875914724059
9.70175e-06	0.010957190230485896
9.70200e-06	0.010965504546247735
