Time(s)	Current(A)
1.00000e-06	-0.009593977525010736
1.00025e-06	-0.009586840351706885
1.00050e-06	-0.009579703178403034
1.00075e-06	-0.009572566005099176
1.00100e-06	-0.009565428831795324
1.00125e-06	-0.009558291658491468
1.00150e-06	-0.009551154485187615
1.00175e-06	-0.009543381888990662
1.00200e-06	-0.009534983645341217
1.00225e-06	-0.009526585401691778
1.00250e-06	-0.00951818715804233
1.00275e-06	-0.009509788914392891
1.00300e-06	-0.009501390670743452
1.00325e-06	-0.009492992427094005
1.00350e-06	-0.009484594183444566
1.00375e-06	-0.00947619593979512
1.00400e-06	-0.009467797696145681
1.00425e-06	-0.009459399452496233
1.00450e-06	-0.009446505849068572
1.00475e-06	-0.009429186043148447
1.00500e-06	-0.00941186623722831
1.00525e-06	-0.009394546431308185
1.00550e-06	-0.009377226625388046
1.00575e-06	-0.009359906819467922
1.00600e-06	-0.009342587013547798
1.00625e-06	-0.00932526720762766
1.00650e-06	-0.009307947401707536
1.00675e-06	-0.009290627595787396
1.00700e-06	-0.009273307789867272
1.00725e-06	-0.009254568689587591
1.00750e-06	-0.009234432129584611
1.00775e-06	-0.009214295569581648
1.00800e-06	-0.009194159009578668
1.00825e-06	-0.009174022449575707
1.00850e-06	-0.009153885889572744
1.00875e-06	-0.009133749329569764
1.00900e-06	-0.009113612769566801
1.00925e-06	-0.00909347620956382
1.00950e-06	-0.009073339649560858
1.00975e-06	-0.009053203089557878
1.01000e-06	-0.009033066529554917
1.01025e-06	-0.009012929969551954
1.01050e-06	-0.008992793409548974
1.01075e-06	-0.00897265684954601
1.01100e-06	-0.008960563343425624
1.01125e-06	-0.008956389155646198
1.01150e-06	-0.008952214967866771
1.01175e-06	-0.008948040780087341
1.01200e-06	-0.008943866592307914
1.01225e-06	-0.008939692404528484
1.01250e-06	-0.008935518216749058
1.01275e-06	-0.008931344028969631
1.01300e-06	-0.008927169841190201
1.01325e-06	-0.008922995653410775
1.01350e-06	-0.008918821465631345
1.01375e-06	-0.008914647277851918
1.01400e-06	-0.008910473090072488
1.01425e-06	-0.008906298902293061
1.01450e-06	-0.008902124714513635
1.01475e-06	-0.008906536601412496
1.01500e-06	-0.008919402473534843
1.01525e-06	-0.008932268345657201
1.01550e-06	-0.008945134217779548
1.01575e-06	-0.008958000089901896
1.01600e-06	-0.008970865962024253
1.01625e-06	-0.0089837318341466
1.01650e-06	-0.00899659770626896
1.01675e-06	-0.009013003641154505
1.01700e-06	-0.009032895177949108
1.01725e-06	-0.009052786714743728
1.01750e-06	-0.00907267825153833
1.01775e-06	-0.00909256978833295
1.01800e-06	-0.009112461325127552
1.01825e-06	-0.009132352861922172
1.01850e-06	-0.009152244398716775
1.01875e-06	-0.009172935397241285
1.01900e-06	-0.009192857080555106
1.01925e-06	-0.009211246231055405
1.01950e-06	-0.00922963538155572
1.01975e-06	-0.009248024532056016
1.02000e-06	-0.009266413682556315
1.02025e-06	-0.009284802833056629
1.02050e-06	-0.009303191983556927
1.02075e-06	-0.00932158113405724
1.02100e-06	-0.009339970284557539
1.02125e-06	-0.009358359435057837
1.02150e-06	-0.009376748585558151
1.02175e-06	-0.009395137736058448
1.02200e-06	-0.00941347141636936
1.02225e-06	-0.009417548821106833
1.02250e-06	-0.00942162622584431
1.02275e-06	-0.009425703630581782
1.02300e-06	-0.009429781035319254
1.02325e-06	-0.009433858440056729
1.02350e-06	-0.009437935844794201
1.02375e-06	-0.009442013249531677
1.02400e-06	-0.00944609065426915
1.02425e-06	-0.009450168059006623
1.02450e-06	-0.009454245463744099
1.02475e-06	-0.009458322868481571
1.02500e-06	-0.009462400273219047
1.02525e-06	-0.009459346090612846
1.02550e-06	-0.009449270034067868
1.02575e-06	-0.009439193977522879
1.02600e-06	-0.0094291179209779
1.02625e-06	-0.009419041864432912
1.02650e-06	-0.009408965807887932
1.02675e-06	-0.009398889751342945
1.02700e-06	-0.009388813694797965
1.02725e-06	-0.009378737638252985
1.02750e-06	-0.009368661581707998
1.02775e-06	-0.009358585525163018
1.02800e-06	-0.009348509468618031
1.02825e-06	-0.009337034476251655
1.02850e-06	-0.009324182069501532
1.02875e-06	-0.009311329662751399
1.02900e-06	-0.009298477256001275
1.02925e-06	-0.009285624849251143
1.02950e-06	-0.009272772442501019
1.02975e-06	-0.009259920035750897
1.03000e-06	-0.009247067629000762
1.03025e-06	-0.00923421522225064
1.03050e-06	-0.009221362815500506
1.03075e-06	-0.009208510408750384
1.03100e-06	-0.00919565800200025
1.03125e-06	-0.009188394143047791
1.03150e-06	-0.009186632856838763
1.03175e-06	-0.009184871570629735
1.03200e-06	-0.009183110284420709
1.03225e-06	-0.009181348998211679
1.03250e-06	-0.009179587712002652
1.03275e-06	-0.009177826425793626
1.03300e-06	-0.009176065139584598
1.03325e-06	-0.00917430385337557
1.03350e-06	-0.009172542567166542
1.03375e-06	-0.009170781280957515
1.03400e-06	-0.009169019994748487
1.03425e-06	-0.009174487084581923
1.03450e-06	-0.009187071348040771
1.03475e-06	-0.00919965561149963
1.03500e-06	-0.009212239874958478
1.03525e-06	-0.009224824138417338
1.03550e-06	-0.009237408401876186
1.03575e-06	-0.009249992665335034
1.03600e-06	-0.009262576928793892
1.03625e-06	-0.00927516119225274
1.03650e-06	-0.009287745455711599
1.03675e-06	-0.009300329719170447
1.03700e-06	-0.009312913982629295
1.03725e-06	-0.009328952680704434
1.03750e-06	-0.009348392669857509
1.03775e-06	-0.0093678326590106
1.03800e-06	-0.009387272648163678
1.03825e-06	-0.009406712637316753
1.03850e-06	-0.009426152626469845
1.03875e-06	-0.00944559261562292
1.03900e-06	-0.009465032604776012
1.03925e-06	-0.009484466491892775
1.03950e-06	-0.00950233210762532
1.03975e-06	-0.009520197723357852
1.04000e-06	-0.009538063339090382
1.04025e-06	-0.009555928954822927
1.04050e-06	-0.009573794570555459
1.04075e-06	-0.009591660186288004
1.04100e-06	-0.009609525802020534
1.04125e-06	-0.009627391417753066
1.04150e-06	-0.009644609434310383
1.04175e-06	-0.009661189814454957
1.04200e-06	-0.009677770194599545
1.04225e-06	-0.00969435057474412
1.04250e-06	-0.009710930954888694
1.04275e-06	-0.009727511335033282
1.04300e-06	-0.009744091715177856
1.04325e-06	-0.009760672095322444
1.04350e-06	-0.009777252475467018
1.04375e-06	-0.009793832855611593
1.04400e-06	-0.00981043910366305
1.04425e-06	-0.00983369360746948
1.04450e-06	-0.009856948111275932
1.04475e-06	-0.009880202615082363
1.04500e-06	-0.009903457118888813
1.04525e-06	-0.009926711622695244
1.04550e-06	-0.009949966126501675
1.04575e-06	-0.009973220630308127
1.04600e-06	-0.009996475134114557
1.04625e-06	-0.01001972963792101
1.04650e-06	-0.01004298414172744
1.04675e-06	-0.010068468621109957
1.04700e-06	-0.010096148769790985
1.04725e-06	-0.01012382891847199
1.04750e-06	-0.010151509067153019
1.04775e-06	-0.010179189215834024
1.04800e-06	-0.010206869364515028
1.04825e-06	-0.010234549513196058
1.04850e-06	-0.010262229661877061
1.04875e-06	-0.01028990981055809
1.04900e-06	-0.010316152790870125
1.04925e-06	-0.010340980712426248
1.04950e-06	-0.01036580863398235
1.04975e-06	-0.010390636555538452
1.05000e-06	-0.010415464477094575
1.05025e-06	-0.010440292398650677
1.05050e-06	-0.0104651203202068
1.05075e-06	-0.010489948241762902
1.05100e-06	-0.010514776163319004
1.05125e-06	-0.01053314795936459
1.05150e-06	-0.010545162951899703
1.05175e-06	-0.010557177944434826
1.05200e-06	-0.01056919293696994
1.05225e-06	-0.010581207929505055
1.05250e-06	-0.01059322292204018
1.05275e-06	-0.010605237914575294
1.05300e-06	-0.010617252907110419
1.05325e-06	-0.010619005941069817
1.05350e-06	-0.010610654887958555
1.05375e-06	-0.0106023038348473
1.05400e-06	-0.010593952781736044
1.05425e-06	-0.010585601728624782
1.05450e-06	-0.010577250675513527
1.05475e-06	-0.010568899622402265
1.05500e-06	-0.01056054856929101
1.05525e-06	-0.010542802018114304
1.05550e-06	-0.010515804510619243
1.05575e-06	-0.010488807003124207
1.05600e-06	-0.010461809495629146
1.05625e-06	-0.010434811988134108
1.05650e-06	-0.010407814480639072
1.05675e-06	-0.01038081697314401
1.05700e-06	-0.010353819465648974
1.05725e-06	-0.010326786319696628
1.05750e-06	-0.010290593809638727
1.05775e-06	-0.010254401299580796
1.05800e-06	-0.010218208789522896
1.05825e-06	-0.010182016279464997
1.05850e-06	-0.010145823769407066
1.05875e-06	-0.010109631259349166
1.05900e-06	-0.010073438749291235
1.05925e-06	-0.010037246239233336
1.05950e-06	-0.010004227445446828
1.05975e-06	-0.009974333543005936
1.06000e-06	-0.00994443964056507
1.06025e-06	-0.009914545738124178
1.06050e-06	-0.009884651835683314
1.06075e-06	-0.009854757933242447
1.06100e-06	-0.009824864030801557
1.06125e-06	-0.00979497012836069
1.06150e-06	-0.0097650762259198
1.06175e-06	-0.009744747890475943
1.06200e-06	-0.009733837963915743
1.06225e-06	-0.009722928037355553
1.06250e-06	-0.009712018110795364
1.06275e-06	-0.009701108184235164
1.06300e-06	-0.009690198257674974
1.06325e-06	-0.009679288331114774
1.06350e-06	-0.009668378404554584
1.06375e-06	-0.009657468477994395
1.06400e-06	-0.009656716270592374
1.06425e-06	-0.009665965514477654
1.06450e-06	-0.00967521475836294
1.06475e-06	-0.00968446400224822
1.06500e-06	-0.009693713246133497
1.06525e-06	-0.009702962490018783
1.06550e-06	-0.009712211733904063
1.06575e-06	-0.009721460977789349
1.06600e-06	-0.009730710221674628
1.06625e-06	-0.009739959465559915
1.06650e-06	-0.0097558544308499
1.06675e-06	-0.009778292878772368
1.06700e-06	-0.009800731326694855
1.06725e-06	-0.009823169774617323
1.06750e-06	-0.009845608222539812
1.06775e-06	-0.00986804667046228
1.06800e-06	-0.009890485118384747
1.06825e-06	-0.009912923566307234
1.06850e-06	-0.009935362014229702
1.06875e-06	-0.00995780046215219
1.06900e-06	-0.009980427791633882
1.06925e-06	-0.010003241096892632
1.06950e-06	-0.010026054402151404
1.06975e-06	-0.010048867707410154
1.07000e-06	-0.010071681012668924
1.07025e-06	-0.010094494317927675
1.07050e-06	-0.010117307623186446
1.07075e-06	-0.010140120928445196
1.07100e-06	-0.010162934233703947
1.07125e-06	-0.010185747538962717
1.07150e-06	-0.0102032336334178
1.07175e-06	-0.010215474471677269
1.07200e-06	-0.010227715309936727
1.07225e-06	-0.010239956148196186
1.07250e-06	-0.010252196986455655
1.07275e-06	-0.010264437824715113
1.07300e-06	-0.010276678662974582
1.07325e-06	-0.010288919501234041
1.07350e-06	-0.0103011603394935
1.07375e-06	-0.010313401177752968
1.07400e-06	-0.010319399304503395
1.07425e-06	-0.010319250758552743
1.07450e-06	-0.010319102212602092
1.07475e-06	-0.010318953666651441
1.07500e-06	-0.01031880512070079
1.07525e-06	-0.010318656574750139
1.07550e-06	-0.010318508028799488
1.07575e-06	-0.010318359482848836
1.07600e-06	-0.010318210936898185
1.07625e-06	-0.010318062390947534
1.07650e-06	-0.010317913844996883
1.07675e-06	-0.010317765299046232
1.07700e-06	-0.010314110360522787
1.07725e-06	-0.010307002972294602
1.07750e-06	-0.010299895584066424
1.07775e-06	-0.010292788195838246
1.07800e-06	-0.010285680807610062
1.07825e-06	-0.010278573419381884
1.07850e-06	-0.010271466031153701
1.07875e-06	-0.010264358642925523
1.07900e-06	-0.010257251254697338
1.07925e-06	-0.01025014386646916
1.07950e-06	-0.010243036478240982
1.07975e-06	-0.010235929090012799
1.08000e-06	-0.010230254225468971
1.08025e-06	-0.010225989846450737
1.08050e-06	-0.010221725467432505
1.08075e-06	-0.010217461088414275
1.08100e-06	-0.01021319670939604
1.08125e-06	-0.010208932330377809
1.08150e-06	-0.010204667951359573
1.08175e-06	-0.010200403572341343
1.08200e-06	-0.010196139193323111
1.08225e-06	-0.010191926802633184
1.08250e-06	-0.010201075821504342
1.08275e-06	-0.010210224840375507
1.08300e-06	-0.010219373859246664
1.08325e-06	-0.010228522878117822
1.08350e-06	-0.010237671896988985
1.08375e-06	-0.010246820915860143
1.08400e-06	-0.010255969934731308
1.08425e-06	-0.010265118953602465
1.08450e-06	-0.01027426797247363
1.08475e-06	-0.010290999012328432
1.08500e-06	-0.010315195430221111
1.08525e-06	-0.010339391848113812
1.08550e-06	-0.010363588266006491
1.08575e-06	-0.01038778468389919
1.08600e-06	-0.010411981101791869
1.08625e-06	-0.010436177519684548
1.08650e-06	-0.010460373937577249
1.08675e-06	-0.010484602067458892
1.08700e-06	-0.010516980428088001
1.08725e-06	-0.010549358788717085
1.08750e-06	-0.010581737149346168
1.08775e-06	-0.01061411550997528
1.08800e-06	-0.010646493870604363
1.08825e-06	-0.010678872231233474
1.08850e-06	-0.010711250591862558
1.08875e-06	-0.010743628952491667
1.08900e-06	-0.010775801459595323
1.08925e-06	-0.010807771280055008
1.08950e-06	-0.010839741100514718
1.08975e-06	-0.010871710920974402
1.09000e-06	-0.010903680741434113
1.09025e-06	-0.010935650561893797
1.09050e-06	-0.010963889365416946
1.09075e-06	-0.01098845455052674
1.09100e-06	-0.011013019735636514
1.09125e-06	-0.01103758492074631
1.09150e-06	-0.011062150105856084
1.09175e-06	-0.011086715290965858
1.09200e-06	-0.011105122076914487
1.09225e-06	-0.011117465205436725
1.09250e-06	-0.011129808333958973
1.09275e-06	-0.011133434799191549
1.09300e-06	-0.011128478699587687
1.09325e-06	-0.01112352259998383
1.09350e-06	-0.011118566500379973
1.09375e-06	-0.011113610400776111
1.09400e-06	-0.011108654301172255
1.09425e-06	-0.011103698201568393
1.09450e-06	-0.01108678467580842
1.09475e-06	-0.011058097678726867
1.09500e-06	-0.011029410681645292
1.09525e-06	-0.01100072368456374
1.09550e-06	-0.010972036687482162
1.09575e-06	-0.01094334969040061
1.09600e-06	-0.010914662693319059
1.09625e-06	-0.01087701745226029
1.09650e-06	-0.010830551782191227
1.09675e-06	-0.010784086112122128
1.09700e-06	-0.010737620442053066
1.09725e-06	-0.010691154771983966
1.09750e-06	-0.010644689101914904
1.09775e-06	-0.010598223431845842
1.09800e-06	-0.010551737802722888
1.09825e-06	-0.010500122539697926
1.09850e-06	-0.01044850727667292
1.09875e-06	-0.010396892013647956
1.09900e-06	-0.010345276750622993
1.09925e-06	-0.010293661487597987
1.09950e-06	-0.010242046224573023
1.09975e-06	-0.010190430961548017
1.10000e-06	-0.010144637223708388
1.10025e-06	-0.01010457545183873
1.10050e-06	-0.01006451367996904
1.10075e-06	-0.010024451908099382
1.10100e-06	-0.009984390136229692
1.10125e-06	-0.009944328364360034
1.10150e-06	-0.009904266592490343
1.10175e-06	-0.009864274775973488
1.10200e-06	-0.009842262035599875
1.10225e-06	-0.009820249295226244
1.10250e-06	-0.009798236554852631
1.10275e-06	-0.009776223814479
1.10300e-06	-0.009754211074105387
1.10325e-06	-0.009732198333731774
1.10350e-06	-0.009710185593358144
1.10375e-06	-0.009697308222853996
1.10400e-06	-0.009693425682320816
1.10425e-06	-0.00968954314178764
1.10450e-06	-0.009685660601254465
1.10475e-06	-0.009681778060721286
1.10500e-06	-0.00967789552018811
1.10525e-06	-0.009674012979654931
1.10550e-06	-0.009670130439121755
1.10575e-06	-0.009666247898588576
1.10600e-06	-0.0096623653580554
1.10625e-06	-0.009658482817522225
1.10650e-06	-0.009654600276989046
1.10675e-06	-0.009650717736455868
1.10700e-06	-0.009652880308262628
1.10725e-06	-0.009660994993495452
1.10750e-06	-0.009669109678728274
1.10775e-06	-0.009677224363961104
1.10800e-06	-0.009685339049193926
1.10825e-06	-0.009693453734426755
1.10850e-06	-0.009701568419659579
1.10875e-06	-0.0097096831048924
1.10900e-06	-0.009717797790125231
1.10925e-06	-0.009725912475358053
1.10950e-06	-0.009734027160590884
1.10975e-06	-0.009742141845823706
1.11000e-06	-0.009750256531056536
1.11025e-06	-0.009758535086045008
1.11050e-06	-0.009766974989792256
1.11075e-06	-0.009775414893539511
1.11100e-06	-0.009783854797286759
1.11125e-06	-0.009792294701034016
1.11150e-06	-0.009800734604781263
1.11175e-06	-0.009809174508528511
1.11200e-06	-0.009816865306893798
1.11225e-06	-0.009821667563122064
1.11250e-06	-0.009826469819350335
1.11275e-06	-0.009831272075578603
1.11300e-06	-0.009836074331806869
1.11325e-06	-0.00984087658803514
1.11350e-06	-0.009845678844263408
1.11375e-06	-0.009850481100491679
1.11400e-06	-0.009852925180209185
1.11425e-06	-0.016744784672966334
1.11450e-06	-0.02984458584322051
1.11475e-06	-0.026469074221741228
1.11500e-06	-0.023169262539036686
1.11525e-06	-0.01635236510971755
1.11550e-06	-0.005974035233356992
1.11575e-06	-0.00615961758982604
1.11600e-06	-0.006958398981098321
1.11625e-06	-0.011034446708389904
1.11650e-06	-0.017596715193191524
1.11675e-06	-0.01777007606029072
1.11700e-06	-0.015095551886978312
1.11725e-06	-0.011089253870032905
1.11750e-06	-0.007011983504007107
1.11775e-06	-0.005966277426774248
1.11800e-06	-0.007322539103854284
1.11825e-06	-0.0102829995964416
1.11850e-06	-0.013537365590387427
1.11875e-06	-0.01397561985783535
1.11900e-06	-0.012362863427847176
1.11925e-06	-0.009905111643242278
1.11950e-06	-0.0073943446049417605
1.11975e-06	-0.006775657458629622
1.12000e-06	-0.0076559372255188725
1.12025e-06	-0.009536495591250157
1.12050e-06	-0.011597443184863464
1.12075e-06	-0.011891495291294045
1.12100e-06	-0.010898663381837917
1.12125e-06	-0.009374975382272603
1.12150e-06	-0.007816970772646968
1.12175e-06	-0.007443379194066595
1.12200e-06	-0.00800818136086138
1.12225e-06	-0.00919914883141943
1.12250e-06	-0.010502806118566046
1.12275e-06	-0.010699519811613378
1.12300e-06	-0.010090127863392239
1.12325e-06	-0.009148309259801597
1.12350e-06	-0.008185147811072884
1.12375e-06	-0.007964043290696379
1.12400e-06	-0.008330841138639383
1.12425e-06	-0.009089920296391316
1.12450e-06	-0.009919615923107365
1.12475e-06	-0.01005597051356335
1.12500e-06	-0.009687469459601557
1.12525e-06	-0.009110840320660346
1.12550e-06	-0.008520934657723923
1.12575e-06	-0.008395903388993042
1.12600e-06	-0.00863912158038717
1.12625e-06	-0.009127998454754782
1.12650e-06	-0.009661002493602184
1.12675e-06	-0.009759581938625606
1.12700e-06	-0.009541809092251032
1.12725e-06	-0.009193544402771791
1.12750e-06	-0.008836818627808897
1.12775e-06	-0.008771101951412168
1.12800e-06	-0.008935813432385762
1.12825e-06	-0.009254113207491959
1.12850e-06	-0.009599723411311965
1.12875e-06	-0.009672858777082374
1.12900e-06	-0.009547468962410053
1.12925e-06	-0.009339957407775035
1.12950e-06	-0.009126737793480713
1.12975e-06	-0.00909535569387493
1.13000e-06	-0.009207815859576465
1.13025e-06	-0.009415944827728208
1.13050e-06	-0.009640602249307042
1.13075e-06	-0.009693978828303172
1.13100e-06	-0.009622378474537814
1.13125e-06	-0.00949869488206804
1.13150e-06	-0.009370829959096915
1.13175e-06	-0.009356498606346802
1.13200e-06	-0.009432264172747298
1.13225e-06	-0.009568146394186605
1.13250e-06	-0.009714589653059906
1.13275e-06	-0.00975393801298048
1.13300e-06	-0.009712473885441964
1.13325e-06	-0.00963451566668856
1.13350e-06	-0.00957035325374716
1.13375e-06	-0.009567972975925274
1.13400e-06	-0.009625349664411703
1.13425e-06	-0.009725250308684269
1.13450e-06	-0.009812759803090243
1.13475e-06	-0.009844408873382875
1.13500e-06	-0.009825510011292102
1.13525e-06	-0.009783816096610429
1.13550e-06	-0.009750775671434966
1.13575e-06	-0.009756479005095926
1.13600e-06	-0.009797026424822216
1.13625e-06	-0.00985515150846745
1.13650e-06	-0.009913276592112635
1.13675e-06	-0.009958308699149052
1.13700e-06	-0.009955325287398223
1.13725e-06	-0.009944256208158059
1.13750e-06	-0.009933187128917886
1.13775e-06	-0.009931036984071594
1.13800e-06	-0.009963109646008063
1.13825e-06	-0.010005976871913323
1.13850e-06	-0.010048844097818583
1.13875e-06	-0.010083437006632017
1.13900e-06	-0.010087611341170234
1.13925e-06	-0.010086416143866144
1.13950e-06	-0.010085220946562053
1.13975e-06	-0.010089513361693891
1.14000e-06	-0.010114780568918205
1.14025e-06	-0.010146404247820989
1.14050e-06	-0.010178027926723801
1.14075e-06	-0.010204341670846813
1.14100e-06	-0.010211053799639743
1.14125e-06	-0.01021403775716881
1.14150e-06	-0.010217021714697879
1.14175e-06	-0.010223623866832789
1.14200e-06	-0.010244557202817589
1.14225e-06	-0.010271432688794149
1.14250e-06	-0.010298308174770687
1.14275e-06	-0.010322382368548225
1.14300e-06	-0.010336458767270419
1.14325e-06	-0.010349766125098242
1.14350e-06	-0.010363073482926075
1.14375e-06	-0.010379040889586532
1.14400e-06	-0.010405675475370359
1.14425e-06	-0.010437136172822613
1.14450e-06	-0.01046859687027484
1.14475e-06	-0.010498564314926998
1.14500e-06	-0.010524268059711813
1.14525e-06	-0.010553281551878834
1.14550e-06	-0.01058229504404583
1.14575e-06	-0.010611308536212826
1.14600e-06	-0.010640322028379846
1.14625e-06	-0.010670485005106603
1.14650e-06	-0.010704660073246662
1.14675e-06	-0.010738835141386691
1.14700e-06	-0.010773010209526722
1.14725e-06	-0.01080718527766678
