Time(s)	Current(A)
1.22500e-05	-0.0036800072702149298
1.22503e-05	-0.0036802707655166867
1.22505e-05	-0.003680534260818446
1.22508e-05	-0.003680797756120205
1.22510e-05	-0.0036810612514219625
1.22513e-05	-0.0036813247467237216
1.22515e-05	-0.0036815882420254803
1.22518e-05	-0.0036818517373272378
1.22520e-05	-0.0036916819343571945
1.22523e-05	-0.0037100956303813657
1.22525e-05	-0.0037285093264054123
1.22528e-05	-0.003746923022429584
1.22530e-05	-0.0037653367184537555
1.22532e-05	-0.003783750414477802
1.22535e-05	-0.0038021641105019737
1.22538e-05	-0.003820577806526145
1.22540e-05	-0.0038389915025503164
1.22543e-05	-0.003857405198574363
1.22545e-05	-0.0038758188945985346
1.22548e-05	-0.003894232590622706
1.22550e-05	-0.003912646286646753
1.22553e-05	-0.003931353200080687
1.22555e-05	-0.0039605926488437615
1.22558e-05	-0.003989832097606639
1.22560e-05	-0.004019071546369714
1.22563e-05	-0.00404831099513279
1.22565e-05	-0.004077550443895667
1.22568e-05	-0.0041067898926587425
1.22570e-05	-0.004136029341421817
1.22573e-05	-0.004165268790184694
1.22575e-05	-0.00419450823894777
1.22578e-05	-0.004223747687710846
1.22580e-05	-0.0042505829856464734
1.22583e-05	-0.004275261215577328
1.22585e-05	-0.004299939445508183
1.22588e-05	-0.004324617675438871
1.22590e-05	-0.004349295905369726
1.22593e-05	-0.004373974135300581
1.22595e-05	-0.004398652365231269
1.22598e-05	-0.004423330595162124
1.22600e-05	-0.004448008825092979
1.22603e-05	-0.0044726870550236665
1.22605e-05	-0.004496977546484418
1.22608e-05	-0.004507340252601518
1.22610e-05	-0.004517702958718548
1.22613e-05	-0.00452806566483565
1.22615e-05	-0.00453842837095275
1.22617e-05	-0.00454879107706978
1.22620e-05	-0.0045591537831868815
1.22623e-05	-0.004569516489303982
1.22625e-05	-0.004579879195421082
1.22628e-05	-0.004590241901538113
1.22630e-05	-0.004600604607655214
1.22633e-05	-0.004610967313772314
1.22635e-05	-0.004621330019889345
1.22638e-05	-0.004631692726006446
1.22640e-05	-0.004642055432123546
1.22643e-05	-0.004652418138240577
1.22645e-05	-0.004657269600276374
1.22648e-05	-0.004657176227677602
1.22650e-05	-0.004657082855078832
1.22653e-05	-0.004656989482480061
1.22655e-05	-0.00465689610988129
1.22658e-05	-0.00465680273728252
1.22660e-05	-0.004656709364683748
1.22663e-05	-0.004656615992084977
1.22665e-05	-0.004656522619486207
1.22668e-05	-0.004656429246887435
1.22670e-05	-0.004656335874288664
1.22673e-05	-0.004656242501689893
1.22675e-05	-0.004656149129091122
1.22678e-05	-0.0046560557564923515
1.22680e-05	-0.004655962383893581
1.22683e-05	-0.004655876731059651
1.22685e-05	-0.00465606837654945
1.22688e-05	-0.004656260022039247
1.22690e-05	-0.004656451667529046
1.22693e-05	-0.004656643313018845
1.22695e-05	-0.004656834958508643
1.22698e-05	-0.004657026603998441
1.22700e-05	-0.00465721824948824
1.22702e-05	-0.004657409894978038
1.22705e-05	-0.004657601540467837
1.22708e-05	-0.004657793185957636
1.22710e-05	-0.004657984831447435
1.22713e-05	-0.004658176476937232
1.22715e-05	-0.004658368122427031
1.22718e-05	-0.00465855976791683
1.22720e-05	-0.0046587514134066275
1.22723e-05	-0.004658943058896426
1.22725e-05	-0.004659134704386225
1.22728e-05	-0.004659326349876022
1.22730e-05	-0.004659517995365821
1.22733e-05	-0.00465970964085562
1.22735e-05	-0.004659901286345418
1.22738e-05	-0.004660092931835217
1.22740e-05	-0.004660284577325016
1.22743e-05	-0.004660476222814813
1.22745e-05	-0.004660667868304612
1.22748e-05	-0.004660859513794411
1.22750e-05	-0.0046610511592842085
1.22753e-05	-0.004661242804774007
1.22755e-05	-0.004661434450263806
1.22758e-05	-0.004661626095753604
1.22760e-05	-0.004661817741243403
1.22763e-05	-0.004662009386733202
1.22765e-05	-0.004662201032222999
1.22768e-05	-0.004662392677712798
1.22770e-05	-0.004662584323202597
1.22773e-05	-0.0046628071494141995
1.22775e-05	-0.004664150004808087
1.22778e-05	-0.004665492860201974
1.22780e-05	-0.004666835715595852
1.22783e-05	-0.004668178570989739
1.22785e-05	-0.004669521426383627
1.22787e-05	-0.004670864281777505
1.22790e-05	-0.004672207137171393
1.22793e-05	-0.00467354999256528
1.22795e-05	-0.004674892847959166
1.22798e-05	-0.004676235703353045
1.22800e-05	-0.004677578558746932
1.22803e-05	-0.00467892141414082
1.22805e-05	-0.004685523488143409
1.22808e-05	-0.0046968442728314115
1.22810e-05	-0.004708165057519413
1.22813e-05	-0.004719485842207338
1.22815e-05	-0.004730806626895341
1.22818e-05	-0.0047421274115833426
1.22820e-05	-0.004753448196271268
1.22823e-05	-0.00476476898095927
1.22825e-05	-0.004776089765647272
1.22828e-05	-0.004787410550335197
1.22830e-05	-0.0047987313350232
1.22833e-05	-0.0048100521197112014
1.22835e-05	-0.004821744461386231
1.22838e-05	-0.004846783340440518
1.22840e-05	-0.0048718222194948065
1.22843e-05	-0.004896861098548925
1.22845e-05	-0.004921899977603213
1.22848e-05	-0.004946938856657501
1.22850e-05	-0.004971977735711619
1.22853e-05	-0.004997016614765907
1.22855e-05	-0.005022055493820196
1.22858e-05	-0.005047094372874314
1.22860e-05	-0.005072133251928602
1.22863e-05	-0.00509717213098289
1.22865e-05	-0.0051222694490856285
1.22868e-05	-0.00514946593090955
1.22870e-05	-0.005176662412733471
1.22872e-05	-0.005203858894557208
1.22875e-05	-0.0052310553763811295
1.22878e-05	-0.005258251858205051
1.22880e-05	-0.005285448340028972
1.22883e-05	-0.005312644821852708
1.22885e-05	-0.0053398413036766295
1.22888e-05	-0.005367037785500551
1.22890e-05	-0.005394234267324288
1.22893e-05	-0.005421430749148209
1.22895e-05	-0.005448540502257115
1.22898e-05	-0.00547253491080483
1.22900e-05	-0.005496529319352709
1.22903e-05	-0.005520523727900587
1.22905e-05	-0.005544518136448303
1.22908e-05	-0.005568512544996181
1.22910e-05	-0.005592506953544059
1.22913e-05	-0.005616501362091775
1.22915e-05	-0.005640495770639653
1.22918e-05	-0.0056644901791875315
1.22920e-05	-0.005688844806278358
1.22923e-05	-0.00572613868745626
1.22925e-05	-0.005763432568634162
1.22928e-05	-0.005800726449811812
1.22930e-05	-0.005838020330989714
1.22933e-05	-0.005875314212167616
1.22935e-05	-0.005912608093345265
1.22938e-05	-0.0059499019745231675
1.22940e-05	-0.00598719585570107
1.22943e-05	-0.0060244897368787196
1.22945e-05	-0.006062107613714927
1.22948e-05	-0.0061113635981091
1.22950e-05	-0.00616061958250294
1.22953e-05	-0.0062098755668971144
1.22955e-05	-0.006259131551291288
1.22957e-05	-0.006308387535685129
1.22960e-05	-0.006357643520079302
1.22963e-05	-0.006406899504473476
1.22965e-05	-0.006456155488867316
1.22968e-05	-0.00650541147326149
1.22970e-05	-0.006553649204406789
1.22973e-05	-0.006600973331679345
1.22975e-05	-0.00664829745895158
1.22978e-05	-0.006695621586224136
1.22980e-05	-0.006742945713496692
1.22983e-05	-0.0067902698407689265
1.22985e-05	-0.006837593968041482
1.22988e-05	-0.006884918095314038
1.22990e-05	-0.006932242222586273
1.22993e-05	-0.00697900747554548
1.22995e-05	-0.007005697646590939
1.22998e-05	-0.007032387817636216
1.23000e-05	-0.007059077988681674
1.23003e-05	-0.007085768159727132
1.23005e-05	-0.007112458330772409
1.23008e-05	-0.007139148501817867
1.23010e-05	-0.007165838672863326
1.23013e-05	-0.007192528843908603
1.23015e-05	-0.007200830499954196
1.23018e-05	-0.0071926334917055456
1.23020e-05	-0.00718443648345695
1.23023e-05	-0.007176239475208299
1.23025e-05	-0.007168042466959648
1.23028e-05	-0.007159845458711053
1.23030e-05	-0.007151648450462403
1.23033e-05	-0.007143451442213752
1.23035e-05	-0.0071343710146665835
1.23038e-05	-0.007093557665479209
1.23040e-05	-0.007052744316291835
1.23042e-05	-0.007011930967104738
1.23045e-05	-0.006971117617917364
1.23048e-05	-0.00693030426872999
1.23050e-05	-0.006889490919542891
1.23053e-05	-0.006848677570355517
1.23055e-05	-0.006807864221168143
1.23058e-05	-0.006766625053773888
1.23060e-05	-0.0067100902551653855
1.23063e-05	-0.0066535554565564994
1.23065e-05	-0.006597020657947613
1.23068e-05	-0.006540485859339111
1.23070e-05	-0.006483951060730225
1.23073e-05	-0.0064274162621213386
1.23075e-05	-0.006370881463512836
1.23078e-05	-0.006314346664903951
1.23080e-05	-0.006257967584001939
1.23083e-05	-0.006207181971348681
1.23085e-05	-0.0061563963586950795
1.23088e-05	-0.006105610746041477
1.23090e-05	-0.006054825133388219
1.23093e-05	-0.006004039520734616
1.23095e-05	-0.005960518177753173
1.23098e-05	-0.005923514530556047
1.23100e-05	-0.00588651088335867
1.23103e-05	-0.005849507236161294
1.23105e-05	-0.005812503588964168
1.23108e-05	-0.0057756315919875725
1.23110e-05	-0.005743488545529011
1.23113e-05	-0.005711345499070666
1.23115e-05	-0.0056792024526121036
1.23118e-05	-0.005647059406153542
1.23120e-05	-0.005614916359695197
1.23123e-05	-0.005582773313236635
1.23125e-05	-0.005550630266778073
1.23127e-05	-0.0055184872203197285
1.23130e-05	-0.0054863441738611666
1.23133e-05	-0.005454201127402604
1.23135e-05	-0.0054220580809442595
1.23138e-05	-0.0053898865985142555
1.23140e-05	-0.005356693679878351
1.23143e-05	-0.005323500761242446
1.23145e-05	-0.005290307842606766
1.23148e-05	-0.005257114923970861
1.23150e-05	-0.005223922005334956
1.23153e-05	-0.005190729086699276
1.23155e-05	-0.005157536168063371
1.23158e-05	-0.0051243432494274665
1.23160e-05	-0.005091150330791787
1.23163e-05	-0.005057957412155882
1.23165e-05	-0.005024764493519978
1.23168e-05	-0.0049916543065063905
1.23170e-05	-0.004961515886236597
1.23173e-05	-0.004931377465966803
1.23175e-05	-0.004901239045697213
1.23178e-05	-0.00487110062542742
1.23180e-05	-0.004840962205157626
1.23183e-05	-0.004810823784888036
1.23185e-05	-0.0047806853646182425
1.23188e-05	-0.004750546944348449
1.23190e-05	-0.004728010909423339
1.23193e-05	-0.004712295936650308
1.23195e-05	-0.004696580963877276
1.23198e-05	-0.004680865991104351
1.23200e-05	-0.004665151018331319
1.23203e-05	-0.004649436045558288
1.23205e-05	-0.004633721072785363
1.23208e-05	-0.004618006100012331
1.23210e-05	-0.0046031643616371775
1.23212e-05	-0.004619689697660912
1.23215e-05	-0.004636215033684759
1.23218e-05	-0.004652740369708605
1.23220e-05	-0.0046692657057323395
1.23223e-05	-0.004685791041756186
1.23225e-05	-0.004702316377780033
1.23228e-05	-0.0047188417138038785
1.23230e-05	-0.004735367049827613
1.23233e-05	-0.004752793475941438
1.23235e-05	-0.004802587568715867
1.23238e-05	-0.004852381661489958
1.23240e-05	-0.004902175754264387
1.23243e-05	-0.0049519698470388155
1.23245e-05	-0.0050017639398129065
1.23248e-05	-0.005051558032587335
1.23250e-05	-0.005101352125361764
1.23253e-05	-0.005151146218135855
1.23255e-05	-0.005201411289108991
1.23258e-05	-0.005268594163881688
1.23260e-05	-0.005335777038653931
1.23263e-05	-0.005402959913426628
1.23265e-05	-0.005470142788199326
1.23268e-05	-0.005537325662971568
1.23270e-05	-0.005604508537744266
1.23273e-05	-0.005671691412516964
1.23275e-05	-0.005738754127836692
1.23278e-05	-0.005801500647525209
1.23280e-05	-0.005864247167213726
1.23283e-05	-0.005926993686901817
1.23285e-05	-0.005989740206590334
1.23288e-05	-0.006052486726278851
1.23290e-05	-0.006115233245966942
1.23293e-05	-0.006177979765655459
1.23295e-05	-0.006240237724696125
1.23297e-05	-0.006284946308377179
1.23300e-05	-0.006329654892058535
1.23303e-05	-0.006374363475739892
1.23305e-05	-0.006419072059420945
1.23308e-05	-0.006463780643102301
1.23310e-05	-0.006508489226783658
1.23313e-05	-0.006553197810465014
1.23315e-05	-0.006597906394146067
1.23318e-05	-0.006642614977827424
1.23320e-05	-0.00668732356150878
1.23323e-05	-0.006731552783008718
1.23325e-05	-0.006775351908021615
1.23328e-05	-0.0068191510330345125
1.23330e-05	-0.006862950158047112
1.23333e-05	-0.00690674928306001
1.23335e-05	-0.006950548408072907
1.23338e-05	-0.006994347533085508
1.23340e-05	-0.007038146658098405
1.23343e-05	-0.0070819457831113024
1.23345e-05	-0.007125744908123903
1.23348e-05	-0.00716961355579456
1.23350e-05	-0.00721597949673792
1.23353e-05	-0.007262345437680966
1.23355e-05	-0.007308711378624326
1.23358e-05	-0.007355077319567686
1.23360e-05	-0.0074014432605107325
1.23363e-05	-0.007447809201454093
1.23365e-05	-0.007494175142397454
1.23368e-05	-0.007540541083340499
1.23370e-05	-0.00758690702428386
1.23373e-05	-0.007633079076782786
1.23375e-05	-0.007672286546454485
1.23378e-05	-0.00771149401612645
1.23380e-05	-0.007750701485798415
1.23382e-05	-0.0077899089554701135
1.23385e-05	-0.007829116425142078
1.23388e-05	-0.007868323894814042
1.23390e-05	-0.007907531364485743
1.23393e-05	-0.007946738834157707
1.23395e-05	-0.00798594630382967
1.23398e-05	-0.008024588954044277
1.23400e-05	-0.008042942969174911
1.23403e-05	-0.00806129698430567
1.23405e-05	-0.008079650999436428
1.23408e-05	-0.008098005014567063
1.23410e-05	-0.008116359029697822
1.23413e-05	-0.008134713044828582
1.23415e-05	-0.008153067059959215
1.23418e-05	-0.008171421075089974
1.23420e-05	-0.008189775090220733
1.23423e-05	-0.008194951907944736
1.23425e-05	-0.00818830579398436
1.23428e-05	-0.008181659680023984
1.23430e-05	-0.008175013566063653
1.23433e-05	-0.008168367452103278
1.23435e-05	-0.008161721338142901
1.23438e-05	-0.00815507522418257
1.23440e-05	-0.008148429110222195
1.23443e-05	-0.008141782996261818
1.23445e-05	-0.008135004974179526
1.23448e-05	-0.008123488737577567
1.23450e-05	-0.008107610016565658
1.23453e-05	-0.009686524875942737
1.23455e-05	-0.02247152460813885
1.23458e-05	-0.024151837385141914
1.23460e-05	-0.02149304361833118
1.23463e-05	-0.01799606742670571
1.23465e-05	-0.008921709142775756
1.23467e-05	-0.005014518081862585
1.23470e-05	-0.005826397526003285
1.23473e-05	-0.007398115595795699
1.23475e-05	-0.014523946768695005
1.23478e-05	-0.019330742797291047
1.23480e-05	-0.015138822364363268
1.23483e-05	-0.011457803161334643
1.23485e-05	-0.00707358273771851
1.23488e-05	-0.004420990334758105
1.23490e-05	-0.00456658884718283
1.23493e-05	-0.006892937767799356
1.23495e-05	-0.010320873465523357
1.23498e-05	-0.012210273087229556
1.23500e-05	-0.01157066235913904
1.23503e-05	-0.009319803049516124
1.23505e-05	-0.006528381347828097
1.23508e-05	-0.004897683032966586
1.23510e-05	-0.005012632612405848
1.23513e-05	-0.006487249239862684
1.23515e-05	-0.008646246935100556
1.23518e-05	-0.00983655458798752
1.23520e-05	-0.00943845277753026
1.23523e-05	-0.0080274651098369
1.23525e-05	-0.006274786820769469
1.23528e-05	-0.0052464866757249255
1.23530e-05	-0.0053092372852860115
1.23533e-05	-0.006221495138676711
1.23535e-05	-0.007560495860082478
1.23538e-05	-0.008291032931859938
1.23540e-05	-0.008025233567333737
1.23543e-05	-0.007123906775172212
1.23545e-05	-0.0060077391900492955
1.23548e-05	-0.005344704220603954
1.23550e-05	-0.005364623158833161
1.23552e-05	-0.0059163182216339216
1.23555e-05	-0.006735107415499862
1.23558e-05	-0.0071727121225505204
1.23560e-05	-0.0069863774342658795
1.23563e-05	-0.0064023184188958335
1.23565e-05	-0.005684231918395584
1.23568e-05	-0.005250680693598435
1.23570e-05	-0.0052457404480565255
1.23573e-05	-0.005574826754500437
1.23575e-05	-0.006072265917721677
1.23578e-05	-0.006332123915286355
1.23580e-05	-0.006202511136263803
1.23583e-05	-0.005825299596120665
1.23585e-05	-0.0053658250197003285
1.23588e-05	-0.005086409916656499
1.23590e-05	-0.005077422682811138
1.23593e-05	-0.005279732947883372
1.23595e-05	-0.0055896872621150045
1.23598e-05	-0.005753149290796733
1.23600e-05	-0.005675008080937186
1.23603e-05	-0.005443852888559206
1.23605e-05	-0.0051627950783085875
1.23608e-05	-0.0049958452259370465
1.23610e-05	-0.004999478319347642
1.23613e-05	-0.005136571658325573
1.23615e-05	-0.005342117575938066
1.23618e-05	-0.005456856303230747
1.23620e-05	-0.005421151382662978
1.23623e-05	-0.005290435939001852
1.23625e-05	-0.00512923470301852
1.23628e-05	-0.005040211523667694
1.23630e-05	-0.0050586632558835614
1.23633e-05	-0.005161257605043903
1.23635e-05	-0.005307197714475988
1.23637e-05	-0.0053966531973558525
1.23640e-05	-0.005392204685716198
1.23643e-05	-0.005328511886302771
1.23645e-05	-0.005245925801304302
1.23648e-05	-0.005208683443860428
1.23650e-05	-0.0052388189599112565
1.23653e-05	-0.005321641017977356
1.23655e-05	-0.00543152057863031
1.23658e-05	-0.005505853613529511
1.23660e-05	-0.005521134232518548
1.23663e-05	-0.0054977747163476665
1.23665e-05	-0.005463984470695353
1.23668e-05	-0.005458319430065012
1.23670e-05	-0.005493653785847727
1.23673e-05	-0.00556440535703943
1.23675e-05	-0.005647142657584687
1.23678e-05	-0.0057064997856859055
1.23680e-05	-0.005729763295022698
1.23683e-05	-0.005727652988515165
1.23685e-05	-0.005718515782735644
1.23688e-05	-0.005726031584461576
1.23690e-05	-0.005757979990387635
1.23693e-05	-0.00581056571552916
1.23695e-05	-0.005870010172821918
1.23698e-05	-0.005913569590995617
1.23700e-05	-0.005933023577310756
1.23703e-05	-0.0059386872216098015
1.23705e-05	-0.005941390385382629
1.23708e-05	-0.005944093549155438
1.23710e-05	-0.005962583523532729
1.23713e-05	-0.005993784149087955
1.23715e-05	-0.006027129843431053
1.23718e-05	-0.006060475537774377
1.23720e-05	-0.006077260995986722
1.23723e-05	-0.006081044742880959
1.23725e-05	-0.006082765516557995
1.23728e-05	-0.00608448629023503
1.23730e-05	-0.006095776505647064
1.23733e-05	-0.006114598136167953
1.23735e-05	-0.006134622192403948
1.23738e-05	-0.0061546462486399426
1.23740e-05	-0.006164097840864034
1.23743e-05	-0.006165166657363196
1.23745e-05	-0.0061648720489887576
1.23748e-05	-0.006164577440614323
1.23750e-05	-0.006170200554529781
1.23753e-05	-0.006177971631383294
1.23755e-05	-0.006185069965086414
1.23758e-05	-0.006192168298789582
1.23760e-05	-0.00619926663249275
1.23763e-05	-0.006205668084964942
1.23765e-05	-0.006207760973750681
1.23768e-05	-0.006209853862536421
1.23770e-05	-0.006211946751322146
1.23773e-05	-0.006214039640107885
1.23775e-05	-0.0062164116698576405
1.23778e-05	-0.006218941245450571
1.23780e-05	-0.006221470821043518
1.23783e-05	-0.006224000396636465
1.23785e-05	-0.006226529972229396
1.23788e-05	-0.006229059547822343
1.23790e-05	-0.00623158912341529
1.23793e-05	-0.0062341186990082205
1.23795e-05	-0.006236648274601168
1.23798e-05	-0.006243974775210587
1.23800e-05	-0.006254008637668885
1.23803e-05	-0.0062640425001272496
1.23805e-05	-0.006274076362585615
1.23808e-05	-0.006284110225043912
1.23810e-05	-0.006294144087502278
1.23813e-05	-0.0063041779499606425
1.23815e-05	-0.00631421181241894
1.23818e-05	-0.006324245674877305
1.23820e-05	-0.006345186105369609
1.23823e-05	-0.006372282151406405
1.23825e-05	-0.006399378197443017
1.23828e-05	-0.006426474243479812
1.23830e-05	-0.006453570289516607
1.23833e-05	-0.006480666335553219
1.23835e-05	-0.006507762381590015
1.23838e-05	-0.006534858427626811
1.23840e-05	-0.006561954473663423
1.23843e-05	-0.0065911506515429754
1.23845e-05	-0.006633331182269885
1.23848e-05	-0.0066755117129965085
1.23850e-05	-0.006717692243723418
1.23853e-05	-0.006759872774450328
1.23855e-05	-0.006802053305176952
1.23858e-05	-0.006844233835903862
1.23860e-05	-0.006886414366630771
1.23863e-05	-0.006928594897357395
1.23865e-05	-0.006970775428084304
1.23868e-05	-0.007014297569189977
1.23870e-05	-0.00705857690886395
1.23873e-05	-0.0071028562485382215
1.23875e-05	-0.007147135588212493
1.23878e-05	-0.007191414927886466
1.23880e-05	-0.0072356942675607374
1.23883e-05	-0.00727997360723501
1.23885e-05	-0.007324252946908982
1.23888e-05	-0.007368532286583253
1.23890e-05	-0.007410896093643074
1.23893e-05	-0.007441416857871412
1.23895e-05	-0.007471937622099957
1.23898e-05	-0.007502458386328501
1.23900e-05	-0.00753297915055684
1.23903e-05	-0.007563499914785384
1.23905e-05	-0.007594020679013929
1.23908e-05	-0.007624541443242473
1.23910e-05	-0.007655062207470812
1.23913e-05	-0.007685582971699356
1.23915e-05	-0.007703661140604799
1.23918e-05	-0.007714716767407704
1.23920e-05	-0.007725772394210685
1.23923e-05	-0.007736828021013664
1.23925e-05	-0.007747883647816569
1.23928e-05	-0.007758939274619549
1.23930e-05	-0.007769994901422528
1.23933e-05	-0.007781050528225433
1.23935e-05	-0.007792106155028414
1.23938e-05	-0.007803161781831393
1.23940e-05	-0.007814217408634298
1.23943e-05	-0.007825273035437279
1.23945e-05	-0.007836328662240257
1.23948e-05	-0.00784554493713232
1.23950e-05	-0.007843389166826087
1.23953e-05	-0.007841233396519851
1.23955e-05	-0.007839077626213631
1.23958e-05	-0.007836921855907395
1.23960e-05	-0.007834766085601162
1.23963e-05	-0.00783261031529494
1.23965e-05	-0.007830454544988706
