Time(s)	Current(A)
8.25000e-06	9.751210044766991e-05
8.25025e-06	7.933288549907419e-05
8.25050e-06	5.955972002162038e-05
8.25075e-06	3.7779812382998564e-05
8.25100e-06	1.3422666576203066e-05
8.25125e-06	-1.3690942813566648e-05
8.25150e-06	-4.3388153362614585e-05
8.25175e-06	-7.542656129103911e-05
8.25200e-06	-0.00010956327529495783
8.25225e-06	-0.0001455554263057116
8.25250e-06	-0.00018326016570036855
8.25275e-06	-0.00022280122838356817
8.25300e-06	-0.00026440110770759273
8.25325e-06	-0.00030803722898834314
8.25350e-06	-0.0003540263654654786
8.25375e-06	-0.00040056331760621964
8.25400e-06	-0.00044917804079043803
8.25425e-06	-0.000498391027083043
8.25450e-06	-0.0005476040133759813
8.25475e-06	-0.0005984809316373285
8.25500e-06	-0.0006498369542324084
8.25525e-06	-0.0007011929768278363
8.25550e-06	-0.0007525489994232642
8.25575e-06	-0.0008033754208380461
8.25600e-06	-0.0008540493515109748
8.25625e-06	-0.0009047232821839035
8.25650e-06	-0.0009553972128568322
8.25675e-06	-0.0010030236515926713
8.25700e-06	-0.0010497726105863745
8.25725e-06	-0.0010965215695800776
8.25750e-06	-0.0011397432285655275
8.25775e-06	-0.0011819492542479173
8.25800e-06	-0.001220147787697374
8.25825e-06	-0.0012571924236709935
8.25850e-06	-0.0012886625363515269
8.25875e-06	-0.001318527548390026
8.25900e-06	-0.0013401216843506106
8.25925e-06	-0.0013593343451960447
8.25950e-06	-0.0013696244243744946
8.25975e-06	-0.0013773453795563352
8.26000e-06	-0.0013763241697641547
8.26025e-06	-0.001372785784264874
8.26050e-06	-0.0013603500356644254
8.26075e-06	-0.0013453524243763934
8.26100e-06	-0.0013205952733211601
8.26125e-06	-0.001293028008697407
8.26150e-06	-0.0012561197511482558
8.26175e-06	-0.0012165218943360767
8.26200e-06	-0.0011685227751340183
8.26225e-06	-0.0011181046380269739
8.26250e-06	-0.0010600148595443898
8.26275e-06	-0.0009997161466206758
8.26300e-06	-0.0009320322580545451
8.26325e-06	-0.000862221918572044
8.26350e-06	-0.0007875125111284421
8.26375e-06	-0.0007085980201274607
8.26400e-06	-0.000626438351654649
8.26425e-06	-0.000541489194319513
8.26450e-06	-0.00045416346623183634
8.26475e-06	-0.00036476886159822464
8.26500e-06	-0.0002735972793754467
8.26525e-06	-0.0001810733018129988
8.26550e-06	-8.772784704228723e-05
8.26575e-06	5.887773580569576e-06
8.26600e-06	9.922218177727118e-05
8.26625e-06	0.00019172405919353806
8.26650e-06	0.0002828689750723301
8.26675e-06	0.00037219839632279675
8.26700e-06	0.0004592637621673884
8.26725e-06	0.0005435333791293144
8.26750e-06	0.0006244089729519551
8.26775e-06	0.0007012796254825893
8.26800e-06	0.0007735343826051534
8.26825e-06	0.0008358753494273198
8.26850e-06	0.0008654161693275748
8.26875e-06	-0.0014140656238555206
8.26900e-06	-0.015046557337034505
8.26925e-06	-0.015447869098064636
8.26950e-06	-0.012604623823934168
8.26975e-06	-0.009091678063805791
8.27000e-06	0.00210452461043616
8.27025e-06	0.004056182541925081
8.27050e-06	0.0034564895837650377
8.27075e-06	0.0014751473885547034
8.27100e-06	-0.004234357095415474
8.27125e-06	-0.008663034629594973
8.27150e-06	-0.005457985548030855
8.27175e-06	-0.0020242223520850204
8.27200e-06	0.002263821582533919
8.27225e-06	0.00465894550548482
8.27250e-06	0.004102726774581445
8.27275e-06	0.001519358322565216
8.27300e-06	-0.0018706892673098778
8.27325e-06	-0.0036552357578801525
8.27350e-06	-0.0027492929575157463
8.27375e-06	-0.0004038765184033946
8.27400e-06	0.0022024179309332063
8.27425e-06	0.0036294065774136464
8.27450e-06	0.0032133571997759527
8.27475e-06	0.0015326310881631643
8.27500e-06	-0.0006487332288011557
8.27525e-06	-0.0018201912335138511
8.27550e-06	-0.0013025461327336866
8.27575e-06	0.00012021994522602123
8.27600e-06	0.001709629131653129
8.27625e-06	0.0025634792117225887
8.27650e-06	0.0022660449417936453
8.27675e-06	0.0011796897754154248
8.27700e-06	-0.0002169195433016241
8.27725e-06	-0.0009775431972091216
8.27750e-06	-0.0006767362887677165
8.27775e-06	0.00019443511673029778
8.27800e-06	0.0011734679406806663
8.27825e-06	0.0016953220468963397
8.27850e-06	0.0014992672873612558
8.27875e-06	0.0008104483681630584
8.27900e-06	-7.401663608727758e-05
8.27925e-06	-0.000562776935687118
8.27950e-06	-0.00038941963152343154
8.27975e-06	0.00013855497193065932
8.28000e-06	0.0007315693292291408
8.28025e-06	0.0010358489816034854
8.28050e-06	0.0008882649367179608
8.28075e-06	0.00043004278426998646
8.28100e-06	-0.00015252134746863841
8.28125e-06	-0.0004888483692024973
8.28150e-06	-0.00041192318082679084
8.28175e-06	-0.00011422710605015412
8.28200e-06	0.00022300326105371228
8.28225e-06	0.0003783375083596623
8.28250e-06	0.000249780676450769
8.28275e-06	-7.401391296329573e-05
8.28300e-06	-0.000476169758943171
8.28325e-06	-0.000724391340462281
8.28350e-06	-0.0007139105247020958
8.28375e-06	-0.0005651463997764647
8.28400e-06	-0.00039146330985215136
8.28425e-06	-0.00033139145591860945
8.28450e-06	-0.00044863732484745687
8.28475e-06	-0.0006874851653076319
8.28500e-06	-0.0009745461020669272
8.28525e-06	-0.0011641427626309022
8.28550e-06	-0.0011904903299825062
8.28575e-06	-0.0011288604890847603
8.28600e-06	-0.0010500993874859948
8.28625e-06	-0.0010408093962367417
8.28650e-06	-0.0011407177335543443
8.28675e-06	-0.0013147454227354905
8.28700e-06	-0.0015167468182361926
8.28725e-06	-0.0016553009967442244
8.28750e-06	-0.0016890379303999257
8.28775e-06	-0.0016649445886084183
8.28800e-06	-0.0016272315701316045
8.28825e-06	-0.0016299831634529274
8.28850e-06	-0.0016980152164164702
8.28875e-06	-0.001809628572168062
8.28900e-06	-0.0019364598413651427
8.28925e-06	-0.002021607755907222
8.28950e-06	-0.002039299190363167
8.28975e-06	-0.002019073676105495
8.29000e-06	-0.001988728637863101
8.29025e-06	-0.001982243831471786
8.29050e-06	-0.0020152625616862317
8.29075e-06	-0.0020742916824995294
8.29100e-06	-0.002141664623532045
8.29125e-06	-0.002181841206959819
8.29150e-06	-0.0021787825161763744
8.29175e-06	-0.0021510966295811944
8.29200e-06	-0.0021162995061387467
8.29225e-06	-0.00209577732909766
8.29250e-06	-0.00209942951302454
8.29275e-06	-0.002118903544610028
8.29300e-06	-0.002143234201770599
8.29325e-06	-0.0021502616219477547
8.29350e-06	-0.002130043059613229
8.29375e-06	-0.0020943385175953414
8.29400e-06	-0.0020542222387647416
8.29425e-06	-0.0020231925709750524
8.29450e-06	-0.002007551159036288
8.29475e-06	-0.0020013901415268536
8.29500e-06	-0.001996725030335267
8.29525e-06	-0.001988087787547984
8.29550e-06	-0.0019594892255534175
8.29575e-06	-0.0019219460849712476
8.29600e-06	-0.0018824975558860567
8.29625e-06	-0.0018497003892909015
8.29650e-06	-0.001827602991165435
8.29675e-06	-0.0018127267859862335
8.29700e-06	-0.0018003610922941156
8.29725e-06	-0.0017858885172080284
8.29750e-06	-0.0017609322324526268
8.29775e-06	-0.0017324177651516976
8.29800e-06	-0.0017056014375612023
8.29825e-06	-0.0016808215469646477
8.29850e-06	-0.001666262216791898
8.29875e-06	-0.001655964245260681
8.29900e-06	-0.0016447197339027532
8.29925e-06	-0.001625958171574789
8.29950e-06	-0.0015974095963018052
8.29975e-06	-0.0015622917499943047
8.30000e-06	-0.001523640000502875
8.30025e-06	-0.00148534544949322
8.30050e-06	-0.0014487045243782098
8.30075e-06	-0.0014116949404006731
8.30100e-06	-0.001371299931859877
8.30125e-06	-0.0013236497287950582
8.30150e-06	-0.0012675684570852513
8.30175e-06	-0.0012051732866360043
8.30200e-06	-0.0011383852344272827
8.30225e-06	-0.0010714320173879366
8.30250e-06	-0.0010035377615747406
8.30275e-06	-0.0009343404722412216
8.30300e-06	-0.0008621959883429897
8.30325e-06	-0.0007849260062122311
8.30350e-06	-0.0007020398808156551
8.30375e-06	-0.0006152092612391107
8.30400e-06	-0.0005260391399471404
8.30425e-06	-0.00043635802761296527
8.30450e-06	-0.0003471897723952792
8.30475e-06	-0.0002580983293748206
8.30500e-06	-0.00016829934343989543
8.30525e-06	-7.667389225105595e-05
8.30550e-06	1.6839717635101523e-05
8.30575e-06	0.00011094876616548106
8.30600e-06	0.0002044024032140761
8.30625e-06	0.00029580991145155655
8.30650e-06	0.0003842846454825875
8.30675e-06	0.0004698544573101443
8.30700e-06	0.0005527654585205041
8.30725e-06	0.0006334732318030541
8.30750e-06	0.0007117710538498898
8.30775e-06	0.0007866038743786353
8.30800e-06	0.0008569429904755758
8.30825e-06	0.000921699978351707
8.30850e-06	0.000980427187220818
8.30875e-06	0.0010343324340539297
8.30900e-06	0.0010854338274214961
8.30925e-06	0.001134830084136898
8.30950e-06	0.0011822241586365051
8.30975e-06	0.0012286405217379975
8.31000e-06	0.0012705911322040146
8.31025e-06	0.0013112405599548817
8.31050e-06	0.0013459467613592148
8.31075e-06	0.0013798423956372225
8.31100e-06	0.001410035718285827
8.31125e-06	0.001440229040934432
8.31150e-06	0.0014696938038586194
8.31175e-06	0.001495830828643701
8.31200e-06	0.0015219678534287824
8.31225e-06	0.0015469911290399937
8.31250e-06	0.0015669272917079636
8.31275e-06	0.0015868634543759334
8.31300e-06	0.001606219975401179
8.31325e-06	0.001622928950127677
8.31350e-06	0.0016396379248541752
8.31375e-06	0.0016563468995805602
8.31400e-06	0.0016722466000905789
8.31425e-06	0.0016844498944087482
8.31450e-06	0.0016966531887268347
8.31475e-06	0.001708856483045004
8.31500e-06	0.001720479725449178
8.31525e-06	0.001729453547616091
8.31550e-06	0.0017384273697830651
8.31575e-06	0.001747401191950039
8.31600e-06	0.0017563750141170128
8.31625e-06	0.001765348836283926
8.31650e-06	0.0017721771569108185
8.31675e-06	0.0017779940283804896
8.31700e-06	0.001783810899850121
8.31725e-06	0.0017896277713197923
8.31750e-06	0.0017954446427894634
8.31775e-06	0.0018010714556138951
8.31800e-06	0.0018057437244898614
8.31825e-06	0.0018099122337093417
8.31850e-06	0.0018134160068107388
8.31875e-06	0.0018158974463791013
8.31900e-06	0.0018168999642771304
8.31925e-06	0.0018161177200377737
8.31950e-06	0.0018133704930656314
8.31975e-06	0.001810064007813823
8.32000e-06	0.0018042030784364658
8.32025e-06	0.0017977815002918453
8.32050e-06	0.0017887991268903227
8.32075e-06	0.001778991772687489
8.32100e-06	0.0017654162715683918
8.32125e-06	0.0017518407704492948
8.32150e-06	0.0017370070317398623
8.32175e-06	0.0017164262209911443
8.32200e-06	0.0016958454102424265
8.32225e-06	0.0016752645994938479
8.32250e-06	0.0016546837887451299
8.32275e-06	0.0016341029779964118
8.32300e-06	0.0016085736566795218
8.32325e-06	0.00158071146971255
8.32350e-06	0.001552849282745578
8.32375e-06	0.001524987095778795
8.32400e-06	0.001497124908811823
8.32425e-06	0.0014686381391629281
8.32450e-06	0.0014372985524505081
8.32475e-06	0.0014059589657383004
8.32500e-06	0.0013744191139675743
8.32525e-06	0.0013419645401078033
8.32550e-06	0.0013095099662482521
8.32575e-06	0.0012771276768321386
8.32600e-06	0.0012450755507399233
8.32625e-06	0.001213023424647925
8.32650e-06	0.0011813055452802217
8.32675e-06	0.0011511143569125173
8.32700e-06	0.0011209231685450172
8.32725e-06	0.0010912020660363757
8.32750e-06	0.0010636281075314306
8.32775e-06	0.0010365945677678764
8.32800e-06	0.0010120294214632094
8.32825e-06	0.000988149518929491
8.32850e-06	0.0009673995064480464
8.32875e-06	0.0009474689511515168
8.32900e-06	0.0009312813133399902
8.32925e-06	0.0009159665933011845
8.32950e-06	0.0009046389750337973
8.32975e-06	0.0008942029102087884
8.33000e-06	0.0008878390666411406
8.33025e-06	0.0008823861962951331
8.33050e-06	0.0008810942481573238
8.33075e-06	0.000880726038544315
8.33100e-06	0.000884577057390363
8.33125e-06	0.0008893139945450198
8.33150e-06	0.0008980974141614807
8.33175e-06	0.0009077071283981056
8.33200e-06	0.0009210909904949219
8.33225e-06	0.0009354214435529636
8.33250e-06	0.0009540755048790999
8.33275e-06	0.000972729566205236
8.33300e-06	0.000992369155629358
8.33325e-06	0.0010165102009164458
8.33350e-06	0.0010406512462036973
8.33375e-06	0.001065542750522426
8.33400e-06	0.001093862019320069
8.33425e-06	0.0011221812881179035
8.33450e-06	0.001150945582634198
8.33475e-06	0.001181742557531374
8.33500e-06	0.001212719982167999
8.33525e-06	0.001244596895807381
8.33550e-06	0.0012768580692325158
8.33575e-06	0.0013093095126985048
8.33600e-06	0.001341757045448322
8.33625e-06	0.0013740065912728804
8.33650e-06	0.0014058650533225166
8.33675e-06	0.001437140581405167
8.33700e-06	0.0014676341454395144
8.33725e-06	0.0014971341639663388
8.33750e-06	0.0015252765291441485
8.33775e-06	0.0015516131674008775
8.33800e-06	0.0015771363739191086
8.33825e-06	0.0015989441845211973
8.33850e-06	0.0016207519951231383
8.33875e-06	0.0016414201189065348
8.33900e-06	0.0016568826580652964
8.33925e-06	0.001672345197223953
8.33950e-06	0.0016878077363827145
8.33975e-06	0.0017032702755414761
8.34000e-06	0.0017187328147001328
8.34025e-06	0.0017341953538588942
8.34050e-06	0.0017496578930176559
8.34075e-06	0.0017651204321763125
8.34100e-06	0.001780582971335074
8.34125e-06	0.0017948994811004303
8.34150e-06	0.0018039814361682437
8.34175e-06	0.0018130633912359956
8.34200e-06	0.001822145346303809
8.34225e-06	0.0018312273013716225
8.34250e-06	0.0018403092564393743
8.34275e-06	0.0018493912115071876
8.34300e-06	0.001858473166575001
8.34325e-06	0.0018675551216427529
8.34350e-06	0.0018766370767105663
8.34375e-06	0.0018851524056576754
8.34400e-06	0.0018910796374413035
8.34425e-06	0.0018970068692249716
8.34450e-06	0.0019029341010086398
8.34475e-06	0.001908861332792268
8.34500e-06	0.001914788564575936
8.34525e-06	0.0019207157963596043
8.34550e-06	0.0019266430281432323
8.34575e-06	0.0019312820517921486
8.34600e-06	0.001935313778261745
8.34625e-06	0.0019393455047313137
8.34650e-06	0.00194337723120091
8.34675e-06	0.0019474089576705063
8.34700e-06	0.0019514406841400751
8.34725e-06	0.0019554724106096715
8.34750e-06	0.0019593514078771186
8.34775e-06	0.0019624931612143032
8.34800e-06	0.00196540858733191
8.34825e-06	0.001968046957369057
8.34850e-06	0.001970133891461992
8.34875e-06	0.00197067556537332
8.34900e-06	0.0019683296055786645
8.34925e-06	0.0019625024829567662
8.34950e-06	0.0019532745529386004
8.34975e-06	0.0019408176564065164
8.35000e-06	0.0019253031985336797
8.35025e-06	0.0019068903342996787
8.35050e-06	0.0018852458983412428
8.35075e-06	0.0018593873196034176
8.35100e-06	0.0018317331265642295
8.35125e-06	0.0017958773626619627
8.35150e-06	0.0017600215987596958
8.35175e-06	0.0017223531757575529
8.35200e-06	0.0016764053288010018
8.35225e-06	0.0016304574818444507
8.35250e-06	0.0015829214541484362
8.35275e-06	0.0015281313202276275
8.35300e-06	0.001473341186306819
8.35325e-06	0.0014170938980910628
8.35350e-06	0.0013541909744176715
8.35375e-06	0.0012912880507442801
8.35400e-06	0.0012274913816080302
8.35425e-06	0.0011596124790286828
8.35450e-06	0.0010917335764493356
8.35475e-06	0.0010233154225817772
8.35500e-06	0.0009524342076576205
8.35525e-06	0.0008815529927334639
8.35550e-06	0.0008106428389408546
8.35575e-06	0.0007396005052112894
8.35600e-06	0.0006685581714817243
8.35625e-06	0.0005979850593482088
8.35650e-06	0.000529555143648101
8.35675e-06	0.00046156647774304587
8.35700e-06	0.0003959567691074245
8.35725e-06	0.0003324501732015842
8.35750e-06	0.000271490538987033
8.35775e-06	0.00021353560366847325
8.35800e-06	0.00015904305687316594
8.35825e-06	0.00010843881597036556
8.35850e-06	6.178185836068504e-05
8.35875e-06	1.7922791806890944e-05
8.35900e-06	-2.4992090142729084e-05
8.35925e-06	-6.776756514089189e-05
8.35950e-06	-0.00011018673252356294
8.35975e-06	-0.00015189117256184673
8.36000e-06	-0.0001925225219676539
8.36025e-06	-0.00023164466732428574
8.36050e-06	-0.0002689958976001029
8.36075e-06	-0.00030633160773469137
8.36100e-06	-0.00034359642873763003
8.36125e-06	-0.00038096683949788115
8.36150e-06	-0.00041881953750361704
8.36175e-06	-0.0004566722355090964
8.36200e-06	-0.0004945249335148323
8.36225e-06	-0.0005323776315205682
8.36250e-06	-0.0005702055934841862
8.36275e-06	-0.0006079205721642008
8.36300e-06	-0.0006456355508442154
8.36325e-06	-0.0006833505295239745
8.36350e-06	-0.000721065508203989
8.36375e-06	-0.0007587035048603931
8.36400e-06	-0.0007959898817272972
8.36425e-06	-0.000833276258594454
8.36450e-06	-0.0008705626354616107
8.36475e-06	-0.0009078490123285148
8.36500e-06	-0.0009451353891956716
8.36525e-06	-0.0009824217660628284
8.36550e-06	-0.00101738585694249
8.36575e-06	-0.001051255157553234
8.36600e-06	-0.0010851244581639781
8.36625e-06	-0.0011189937587744927
8.36650e-06	-0.0011528630593852366
8.36675e-06	-0.0011867323599959807
8.36700e-06	-0.0012197219229588899
8.36725e-06	-0.0012486932339742774
8.36750e-06	-0.0012776645449896647
8.36775e-06	-0.0013057664493020362
8.36800e-06	-0.0013298972888459105
8.36825e-06	-0.0013540281283899486
8.36850e-06	-0.0013768508989976372
8.36875e-06	-0.0013936989900336042
8.36900e-06	-0.0014105470810696855
8.36925e-06	-0.0014257749509095465
8.36950e-06	-0.0014336023679031888
8.36975e-06	-0.001441429784896884
8.37000e-06	-0.0014476066130036337
8.37025e-06	-0.0014462442821025106
8.37050e-06	-0.0014448819512013784
8.37075e-06	-0.0014417912477482351
8.37100e-06	-0.0014308061039551587
8.37125e-06	-0.0014198209601620079
8.37150e-06	-0.0014072095104826533
8.37175e-06	-0.0013871698157886078
8.37200e-06	-0.0013671301210944264
8.37225e-06	-0.0013456545650358269
8.37250e-06	-0.00131762063019198
8.37275e-06	-0.0012895866953479432
8.37300e-06	-0.001260296575223771
8.37325e-06	-0.0012252687570905745
8.37350e-06	-0.001190240938957141
8.37375e-06	-0.001154273499726453
8.37400e-06	-0.001114014287471248
8.37425e-06	-0.00107375507521577
8.37450e-06	-0.0010329521457326807
8.37475e-06	-0.0009896657567602
8.37500e-06	-0.0009461100627569868
8.37525e-06	-0.0009013243026467426
8.37550e-06	-0.0008564533411956987
8.37575e-06	-0.0008111932177528403
8.37600e-06	-0.0007660373233755845
8.37625e-06	-0.0007213575012082028
8.37650e-06	-0.0006769627394456191
8.37675e-06	-0.0006338700073607041
8.37700e-06	-0.0005894753555009348
8.37725e-06	-0.000536310876142138
8.37750e-06	-0.0005059934987964468
8.37775e-06	-0.00047291801808059183
8.37800e-06	-0.0004358893874887059
8.37825e-06	-0.0004061984644929785
8.37850e-06	-0.0003751964332504103
8.37875e-06	-0.0003451226994340157
8.37900e-06	-0.00031635089663990405
8.37925e-06	-0.0002893783960853362
8.37950e-06	-0.0002646053809267523
8.37975e-06	-0.00024218398272543232
8.38000e-06	-0.00022221990180998938
8.38025e-06	-0.00020476243757892862
8.38050e-06	-0.0001892664958775749
8.38075e-06	-0.00017519483809438872
8.38100e-06	-0.0001627131248933598
8.38125e-06	-0.000152064463178139
8.38150e-06	-0.00014343106679953706
8.38175e-06	-0.00013683978207145307
8.38200e-06	-0.00013228834215134165
8.38225e-06	-0.0001297391628767062
8.38250e-06	-0.00012878234208288492
8.38275e-06	-0.00012901292894819624
8.38300e-06	-0.00013046627851562824
8.38325e-06	-0.00013322628112053523
8.38350e-06	-0.00013733863307916036
8.38375e-06	-0.00014275173439869064
8.38400e-06	-0.00014939573499802805
8.38425e-06	-0.00015717866438753582
8.38450e-06	-0.00016585057434879313
8.38475e-06	-0.0001750138935402229
8.38500e-06	-0.00018452796376391622
8.38525e-06	-0.0001947419433614301
8.38550e-06	-0.00020495592295894396
8.38575e-06	-0.0002153511061008123
8.38600e-06	-0.00022610787352224095
8.38625e-06	-0.0002368646409436696
8.38650e-06	-0.00024762140836502534
8.38675e-06	-0.00025716118229562825
8.38700e-06	-0.0002664584425119325
8.38725e-06	-0.0002757557027281737
8.38750e-06	-0.00028431615693054083
8.38775e-06	-0.00029140634479491893
8.38800e-06	-0.0002977525749878875
8.38825e-06	-0.0003026142680022783
8.38850e-06	-0.00030721089928620614
8.38875e-06	-0.0003112786107018792
8.38900e-06	-0.0003161858364810947
8.38925e-06	-0.00032345393583506777
8.38950e-06	-0.0003329700178433432
8.38975e-06	-0.00034424166944476206
8.39000e-06	-0.0003562429719326402
8.39025e-06	-0.0003700841900592799
8.39050e-06	-0.00038515253265511407
8.39075e-06	-0.0004018989959563364
8.39100e-06	-0.00042108521698290834
8.39125e-06	-0.00044300717552372916
8.39150e-06	-0.00046783912719067835
8.39175e-06	-0.0004949487631843329
8.39200e-06	-0.0005232647647672673
8.39225e-06	-0.000553988019662105
8.39250e-06	-0.0005857971813893867
8.39275e-06	-0.0006197732258952213
8.39300e-06	-0.0006550946231260025
8.39325e-06	-0.00069310061682752
8.39350e-06	-0.000732333629058884
8.39375e-06	-0.0007740151067036753
8.39400e-06	-0.0008156965843484665
8.39425e-06	-0.0008582831226443057
8.39450e-06	-0.000902675672542781
