Time(s)	Current(A)
8.30000e-06	0.006097038539226255
8.30025e-06	0.006052153292522232
8.30050e-06	0.006004241078562453
8.30075e-06	0.005953892693636078
8.30100e-06	0.005903544308709361
8.30125e-06	0.005851343759706637
8.30150e-06	0.005797652547619131
8.30175e-06	0.005743961335531261
8.30200e-06	0.005689822864004445
8.30225e-06	0.005635324428075396
8.30250e-06	0.005581359297747532
8.30275e-06	0.005527823383698979
8.30300e-06	0.005475517658866161
8.30325e-06	0.005424202017835492
8.30350e-06	0.005375466342630979
8.30375e-06	0.00532880708164306
8.30400e-06	0.0052821478206548245
8.30425e-06	0.0052402358481522205
8.30450e-06	0.0052021445996302765
8.30475e-06	0.005164053351108075
8.30500e-06	0.0051298627759542885
8.30525e-06	0.0050988115499942446
8.30550e-06	0.005069519604695953
8.30575e-06	0.005041643567833421
8.30600e-06	0.005013767530971078
8.30625e-06	0.004989238995145149
8.30650e-06	0.004967404603044576
8.30675e-06	0.004945570210944152
8.30700e-06	0.004923735818843579
8.30725e-06	0.0049046406489224315
8.30750e-06	0.004887750066293883
8.30775e-06	0.00487085948366545
8.30800e-06	0.0048539689010369015
8.30825e-06	0.004839395938758547
8.30850e-06	0.004826688249188578
8.30875e-06	0.0048139805596185215
8.30900e-06	0.004801272870048465
8.30925e-06	0.004788740218174781
8.30950e-06	0.004779269702393802
8.30975e-06	0.004769799186612823
8.31000e-06	0.0047603286708319086
8.31025e-06	0.00475085815505093
8.31050e-06	0.004743327847648396
8.31075e-06	0.004737359063355898
8.31100e-06	0.004731390279063359
8.31125e-06	0.004725421494770819
8.31150e-06	0.004719452710478321
8.31175e-06	0.004713483926185783
8.31200e-06	0.0047075151418932435
8.31225e-06	0.004701716093192894
8.31250e-06	0.0046988864247703545
8.31275e-06	0.004696056756347815
8.31300e-06	0.004693227087925294
8.31325e-06	0.0046903974195027535
8.31350e-06	0.004687567751080214
8.31375e-06	0.004684738082657693
8.31400e-06	0.0046819084142351525
8.31425e-06	0.004679878489206888
8.31450e-06	0.004678722102003972
8.31475e-06	0.004678119686119401
8.31500e-06	0.004678858118683342
8.31525e-06	0.004682478855505629
8.31550e-06	0.004690221337443343
8.31575e-06	0.0047023660594568105
8.31600e-06	0.004719827867311886
8.31625e-06	0.004740009394673023
8.31650e-06	0.004764343713668707
8.31675e-06	0.004792020292279843
8.31700e-06	0.004824402189833093
8.31725e-06	0.00486057103334086
8.31750e-06	0.004902449497703683
8.31775e-06	0.004948923192668611
8.31800e-06	0.0049993254690274
8.31825e-06	0.005055234087756241
8.31850e-06	0.005115167763015995
8.31875e-06	0.0051787980853992294
8.31900e-06	0.005246042689693995
8.31925e-06	0.005317115337216695
8.31950e-06	0.0053921108902036064
8.31975e-06	0.005470748051652666
8.32000e-06	0.0055525680376699
8.32025e-06	0.005637097478379031
8.32050e-06	0.00572386253824084
8.32075e-06	0.00581241703908841
8.32100e-06	0.00590246881398784
8.32125e-06	0.005993911323353867
8.32150e-06	0.006086563898925813
8.32175e-06	0.006180010210506972
8.32200e-06	0.006273722229302361
8.32225e-06	0.006367162582185795
8.32250e-06	0.006459794412051956
8.32275e-06	0.006551098305723113
8.32300e-06	0.006640651118075213
8.32325e-06	0.0067281456903841375
8.32350e-06	0.006813228299893546
8.32375e-06	0.006895398257647821
8.32400e-06	0.006974084838867238
8.32425e-06	0.007048711347225737
8.32450e-06	0.00711870129404963
8.32475e-06	0.007183560237680407
8.32500e-06	0.007243282647277291
8.32525e-06	0.0072975290255215385
8.32550e-06	0.007349158056598216
8.32575e-06	0.007396510064475372
8.32600e-06	0.007440419828392699
8.32625e-06	0.007478199502001368
8.32650e-06	0.007511045541783336
8.32675e-06	0.007543891581565304
8.32700e-06	0.007570619356473402
8.32725e-06	0.007592423014929012
8.32750e-06	0.007610357692182227
8.32775e-06	0.007625178526803914
8.32800e-06	0.007635174111076205
8.32825e-06	0.007641286225913005
8.32850e-06	0.007647398340749763
8.32875e-06	0.007647862886013056
8.32900e-06	0.007643782140931941
8.32925e-06	0.007639701395850852
8.32950e-06	0.007632061753964318
8.32975e-06	0.007621557832306482
8.33000e-06	0.007608023589270848
8.33025e-06	0.0075920504757936175
8.33050e-06	0.0075760773623163875
8.33075e-06	0.007557407533722935
8.33100e-06	0.007536567328470765
8.33125e-06	0.007514353609735836
8.33150e-06	0.007491034456620841
8.33175e-06	0.0074669086368570935
8.33200e-06	0.0074421335937271725
8.33225e-06	0.007416896326608634
8.33250e-06	0.0073912870512825015
8.33275e-06	0.00736561417661881
8.33300e-06	0.007339890115785356
8.33325e-06	0.007314801661313427
8.33350e-06	0.007290224757061255
8.33375e-06	0.007266875332924418
8.33400e-06	0.007244513812246764
8.33425e-06	0.007224342964085856
8.33450e-06	0.007205935218178152
8.33475e-06	0.0071875274722705725
8.33500e-06	0.007173696759861735
8.33525e-06	0.007163549746414209
8.33550e-06	0.007153402732966751
8.33575e-06	0.007143255719519225
8.33600e-06	0.0071331087060716985
8.33625e-06	0.007123577969895725
8.33650e-06	0.00712482848211637
8.33675e-06	0.007126078994337014
8.33700e-06	0.00712732950655765
8.33725e-06	0.007128580018778295
8.33750e-06	0.007129830530998939
8.33775e-06	0.007135782374741454
8.33800e-06	0.00714551795527522
8.33825e-06	0.007155253535808984
8.33850e-06	0.007167988992601308
8.33875e-06	0.007183138816922578
8.33900e-06	0.007198288641243848
8.33925e-06	0.007215628579061285
8.33950e-06	0.007234731169219867
8.33975e-06	0.0072552898358956425
8.34000e-06	0.007277020385528998
8.34025e-06	0.007299985768548025
8.34050e-06	0.007323944973102583
8.34075e-06	0.007348906415493586
8.34100e-06	0.007374674481318691
8.34125e-06	0.00740113375454868
8.34150e-06	0.0074281493269624825
8.34175e-06	0.007455533465922524
8.34200e-06	0.007483214235485245
8.34225e-06	0.007510982728272176
8.34250e-06	0.007538779251107704
8.34275e-06	0.007566422311014574
8.34300e-06	0.00759376354422043
8.34325e-06	0.007620637716210137
8.34350e-06	0.007646874080364654
8.34375e-06	0.007672308296164876
8.34400e-06	0.007696780950156255
8.34425e-06	0.007720132735821187
8.34450e-06	0.007742204447356922
8.34475e-06	0.007762306439753169
8.34500e-06	0.007781307981412405
8.34525e-06	0.007797911195922812
8.34550e-06	0.007812584183085778
8.34575e-06	0.007822985622584511
8.34600e-06	0.007829949224955219
8.34625e-06	0.007836912827325878
8.34650e-06	0.007843876429696585
8.34675e-06	0.007850243674056038
8.34700e-06	0.007846178140577
8.34725e-06	0.007842112607097933
8.34750e-06	0.007838047073618865
8.34775e-06	0.007833981540139826
8.34800e-06	0.007822890064427197
8.34825e-06	0.007806143953213036
8.34850e-06	0.007789397841998989
8.34875e-06	0.007772651730784828
8.34900e-06	0.007755905619570667
8.34925e-06	0.00773915950835662
8.34950e-06	0.007721818568369238
8.34975e-06	0.007694071603263521
8.35000e-06	0.007666324638157992
8.35025e-06	0.007638577673052275
8.35050e-06	0.007610830707946558
8.35075e-06	0.007583083742840841
8.35100e-06	0.007555336777735312
8.35125e-06	0.007525189934116172
8.35150e-06	0.007493111614576545
8.35175e-06	0.007461033295037137
8.35200e-06	0.007428704620295896
8.35225e-06	0.007396174454087152
8.35250e-06	0.007363644287878628
8.35275e-06	0.007331686128693558
8.35300e-06	0.007300188333558775
8.35325e-06	0.007269653300809778
8.35350e-06	0.007239893120768584
8.35375e-06	0.007211588243215886
8.35400e-06	0.007184454625665936
8.35425e-06	0.007159306649096445
8.35450e-06	0.0071357567608134305
8.35475e-06	0.007114781033141757
8.35500e-06	0.007095877047522212
8.35525e-06	0.0070811807665534165
8.35550e-06	0.007069870940427767
8.35575e-06	0.00705856111430204
8.35600e-06	0.0070535574054525416
8.35625e-06	0.007053629000875465
8.35650e-06	0.007053700596298389
8.35675e-06	0.007053772191721312
8.35700e-06	0.00706130451835736
8.35725e-06	0.00707484140839474
8.35750e-06	0.007088378298432121
8.35775e-06	0.00710191518846941
8.35800e-06	0.00712089730414162
8.35825e-06	0.007144261859232286
8.35850e-06	0.007170099951235602
8.35875e-06	0.00719948563030766
8.35900e-06	0.00723163673195627
8.35925e-06	0.007266473420449498
8.35950e-06	0.007303872464104339
8.35975e-06	0.007343643028888765
8.36000e-06	0.0073855655365478185
8.36025e-06	0.007429418590317921
8.36050e-06	0.007474980743078713
8.36075e-06	0.007522033952189907
8.36100e-06	0.007570377014648511
8.36125e-06	0.007619821746716342
8.36150e-06	0.007670152263145297
8.36175e-06	0.007721109605312649
8.36200e-06	0.007772417743012167
8.36225e-06	0.007823799349768073
8.36250e-06	0.007874976633443307
8.36275e-06	0.007925674690363833
8.36300e-06	0.007975629106970201
8.36325e-06	0.008024582938946844
8.36350e-06	0.008072262011922607
8.36375e-06	0.008118365747462808
8.36400e-06	0.008162582983111876
8.36425e-06	0.008204600693769985
8.36450e-06	0.008244107087805047
8.36475e-06	0.008280786874609815
8.36500e-06	0.008314323706655495
8.36525e-06	0.008344445525770409
8.36550e-06	0.008370984091954638
8.36575e-06	0.008392829149800779
8.36600e-06	0.00841220065935278
8.36625e-06	0.008425237133066425
8.36650e-06	0.008433175028200544
8.36675e-06	0.008441112923334661
8.36700e-06	0.008449050818468726
8.36725e-06	0.008448493880383165
8.36750e-06	0.008441100110463267
8.36775e-06	0.00843370634054337
8.36800e-06	0.008426312570623522
8.36825e-06	0.008412098062013684
8.36850e-06	0.008392394070302544
8.36875e-06	0.008372690078591538
8.36900e-06	0.008347849462088558
8.36925e-06	0.008318874775028838
8.36950e-06	0.008289900087969313
8.36975e-06	0.008257317826316607
8.37000e-06	0.008221832107917321
8.37025e-06	0.008184040558769678
8.37050e-06	0.008144393225445723
8.37075e-06	0.008102940857779463
8.37100e-06	0.008060035758089792
8.37125e-06	0.008015854801506952
8.37150e-06	0.007970647006751255
8.37175e-06	0.007924782835871405
8.37200e-06	0.007878390398800797
8.37225e-06	0.007831987899360357
8.37250e-06	0.007785577301499858
8.37275e-06	0.007739802568009607
8.37300e-06	0.007694539592391364
8.37325e-06	0.007650576210538685
8.37350e-06	0.0076076587708246105
8.37375e-06	0.007566761158347249
8.37400e-06	0.00752748914802113
8.37425e-06	0.00749300424564001
8.37450e-06	0.0074623721148383325
8.37475e-06	0.007431739984036863
8.37500e-06	0.007401107853235185
8.37525e-06	0.0073711321851296025
8.37550e-06	0.007352640775410738
8.37575e-06	0.007334149365691748
8.37600e-06	0.007315657955972757
8.37625e-06	0.007297166546253767
8.37650e-06	0.007284483446013164
8.37675e-06	0.007276475003194028
8.37700e-06	0.007268466560374891
8.37725e-06	0.007264755179489786
8.37750e-06	0.007264502170190348
8.37775e-06	0.00726424916089091
8.37800e-06	0.007267863713739648
8.37825e-06	0.007274590967136984
8.37850e-06	0.007281318220534321
8.37875e-06	0.007291201531929207
8.37900e-06	0.00730362490941329
8.37925e-06	0.007318121264087483
8.37950e-06	0.007334285997184331
8.37975e-06	0.007351775995990028
8.38000e-06	0.007371155906549066
8.38025e-06	0.007391978138673153
8.38050e-06	0.007414164253614499
8.38075e-06	0.007437626731935318
8.38100e-06	0.007462220782902635
8.38125e-06	0.007487720773487433
8.38150e-06	0.0075138999968414845
8.38175e-06	0.007540593924635055
8.38200e-06	0.00756767112722795
8.38225e-06	0.007595003340114174
8.38250e-06	0.00762246224843005
8.38275e-06	0.007649913395442547
8.38300e-06	0.007677186845298115
8.38325e-06	0.007704062150630194
8.38350e-06	0.007730317707613022
8.38375e-06	0.0077557716888393274
8.38400e-06	0.007780262610557612
8.38425e-06	0.007803630851662017
8.38450e-06	0.007825717105634435
8.38475e-06	0.007845923034532482
8.38500e-06	0.007865101294650121
8.38525e-06	0.007882028078017436
8.38550e-06	0.007897142822521729
8.38575e-06	0.00791225756702592
8.38600e-06	0.007923548335784408
8.38625e-06	0.007931761483305438
8.38650e-06	0.007939974630826413
8.38675e-06	0.007948187778347443
8.38700e-06	0.007956400925868473
8.38725e-06	0.007959848019018676
8.38750e-06	0.007959459284976031
8.38775e-06	0.007959070550933384
8.38800e-06	0.007958681816890743
8.38825e-06	0.007958293082848096
8.38850e-06	0.007954472169059642
8.38875e-06	0.007947888960220573
8.38900e-06	0.00794130575138146
8.38925e-06	0.007932548382633619
8.38950e-06	0.007922041201346878
8.38975e-06	0.007911534020060066
8.39000e-06	0.007899314687845146
8.39025e-06	0.007885717378255852
8.39050e-06	0.007872120068666466
8.39075e-06	0.007857280357414074
8.39100e-06	0.007841440733505978
8.39125e-06	0.007825601109597777
8.39150e-06	0.007809096853261802
8.39175e-06	0.0077920576858776115
8.39200e-06	0.007775018518493305
8.39225e-06	0.007757923191044903
8.39250e-06	0.007740782664720508
8.39275e-06	0.007723642138395997
8.39300e-06	0.0077069175233578004
8.39325e-06	0.00769052764302843
8.39350e-06	0.007675069434941639
8.39375e-06	0.0076603610575207365
8.39400e-06	0.007645652680099834
8.39425e-06	0.007632329942606508
8.39450e-06	0.007620122399129092
8.39475e-06	0.007608911675288545
8.39500e-06	0.007598851010977547
8.39525e-06	0.007588660026221259
8.39550e-06	0.007578138875095828
8.39575e-06	0.007566773516942708
8.39600e-06	0.007554728722085206
8.39625e-06	0.007542683927227704
8.39650e-06	0.007530258052364174
8.39675e-06	0.007517525475785319
8.39700e-06	0.007504250176259375
8.39725e-06	0.00749053808116276
8.39750e-06	0.007475359503167365
8.39775e-06	0.007459000666923816
8.39800e-06	0.007442641830680377
8.39825e-06	0.007424925692550963
8.39850e-06	0.0074061171674953165
8.39875e-06	0.007387308642439797
8.39900e-06	0.00736850011738415
8.39925e-06	0.007348177205669212
8.39950e-06	0.007326635481687858
8.39975e-06	0.007305093757706358
8.40000e-06	0.007283552033724858
8.40025e-06	0.007261095021103297
8.40050e-06	0.007237901363705073
8.40075e-06	0.007214707706306849
8.40100e-06	0.007191259995571395
8.40125e-06	0.007167607817025602
8.40150e-06	0.0071439556384798085
8.40175e-06	0.007120293999586314
8.40200e-06	0.00709662474679348
8.40225e-06	0.007072955494000486
8.40250e-06	0.007050069041978267
8.40275e-06	0.007027812605531115
8.40300e-06	0.0070055561690838125
8.40325e-06	0.006984534222008469
8.40350e-06	0.006964505819600641
8.40375e-06	0.006944477417192676
8.40400e-06	0.006926324399711883
8.40425e-06	0.006909680733981042
8.40450e-06	0.006893037068250089
8.40475e-06	0.0068798990946386624
8.40500e-06	0.0068695825804826385
8.40525e-06	0.006859266066326544
8.40550e-06	0.00684894955217045
8.40575e-06	0.006838633038014426
8.40600e-06	0.006828759959839007
8.40625e-06	0.006826644418277921
8.40650e-06	0.006824528876716849
8.40675e-06	0.006822413335155764
8.40700e-06	0.006820297793594677
8.40725e-06	0.006818182252033606
8.40750e-06	0.006819420083175514
8.40775e-06	0.006823356783698432
8.40800e-06	0.006827293484221322
8.40825e-06	0.006833377253656715
8.40850e-06	0.006841189032192161
8.40875e-06	0.006849000810727554
8.40900e-06	0.006858460581832619
8.40925e-06	0.006869246694230528
8.40950e-06	0.006881083808256419
8.40975e-06	0.006893766791908176
8.41000e-06	0.006907370998418156
8.41025e-06	0.006921716625696245
8.41050e-06	0.006936869951660033
8.41075e-06	0.006952673331598039
8.41100e-06	0.006969101868512784
8.41125e-06	0.006986033545749823
8.41150e-06	0.00700326825512448
8.41175e-06	0.007020883596569439
8.41200e-06	0.0070387034249413775
8.41225e-06	0.007056650339751488
8.41250e-06	0.0070746466259223465
8.41275e-06	0.00709261214557583
8.41300e-06	0.007110450544152259
8.41325e-06	0.007128041095410523
8.41350e-06	0.007144957320019218
8.41375e-06	0.0071614407982673375
8.41400e-06	0.007177924276515457
8.41425e-06	0.007193694616553146
8.41450e-06	0.007208447230692819
8.41475e-06	0.007222472698130388
8.41500e-06	0.007236515164449077
8.41525e-06	0.007252199573005562
8.41550e-06	0.007270857167774108
8.41575e-06	0.007292770141078576
8.41600e-06	0.007317718888013352
8.41625e-06	0.0073454425878997295
8.41650e-06	0.00737568052077428
8.41675e-06	0.007408250558851082
8.41700e-06	0.007443416894931736
8.41725e-06	0.007481995853351066
8.41750e-06	0.007524619475770638
8.41775e-06	0.007571262574185316
8.41800e-06	0.007621585611317461
8.41825e-06	0.0076752235087185075
8.41850e-06	0.007732506523494843
8.41875e-06	0.0077915919559348856
8.41900e-06	0.007853709515815571
8.41925e-06	0.007918267399704054
8.41950e-06	0.007985402024296562
8.41975e-06	0.008056111050612456
8.42000e-06	0.0081292894461948
8.42025e-06	0.00820450600869107
8.42050e-06	0.008281617990350385
8.42075e-06	0.008359592972910066
8.42100e-06	0.008438654691410979
8.42125e-06	0.008518591039312259
8.42150e-06	0.008599252393860524
8.42175e-06	0.008680694885243444
8.42200e-06	0.008762233483594341
8.42225e-06	0.008843396322957248
8.42250e-06	0.008923711839520603
8.42275e-06	0.009002728808085414
8.42300e-06	0.009080104253101615
8.42325e-06	0.009155631875943024
8.42350e-06	0.00922906026692698
8.42375e-06	0.00929997542534099
8.42400e-06	0.009367887286521772
8.42425e-06	0.009432298838802308
8.42450e-06	0.009492713372662956
8.42475e-06	0.009548645744872878
8.42500e-06	0.009599699101213178
8.42525e-06	0.009645654999716773
8.42550e-06	0.009686419805726938
8.42575e-06	0.009721909435392214
8.42600e-06	0.009752023003728964
8.42625e-06	0.009776657133931142
8.42650e-06	0.00979253888870109
8.42675e-06	0.009803359615254739
8.42700e-06	0.009814180341808386
8.42725e-06	0.00981723051076822
8.42750e-06	0.009814026761111554
8.42775e-06	0.009804971356387101
8.42800e-06	0.009791206408734238
8.42825e-06	0.009771907931705924
8.42850e-06	0.009748155946424218
8.42875e-06	0.009719212294331528
8.42900e-06	0.00968609027262684
8.42925e-06	0.009648316339948818
8.42950e-06	0.009606798445233747
8.42975e-06	0.009561298174153507
8.43000e-06	0.009512592797468841
8.43025e-06	0.009460565548694433
8.43050e-06	0.009405864782936051
8.43075e-06	0.00934851554983743
8.43100e-06	0.009289034770964464
8.43125e-06	0.00922770432211048
8.43150e-06	0.009164885217468804
8.43175e-06	0.009101095997172206
8.43200e-06	0.00903652600609069
8.43225e-06	0.008971859003443246
8.43250e-06	0.008907113923717265
8.43275e-06	0.008842843323430383
8.43300e-06	0.008779575881646068
8.43325e-06	0.008717679505420831
8.43350e-06	0.008657610115070838
8.43375e-06	0.008600639481779653
8.43400e-06	0.008545433473524171
8.43425e-06	0.00849510504853596
8.43450e-06	0.008448702211696602
8.43475e-06	0.008402299374857243
8.43500e-06	0.008360047738588141
8.43525e-06	0.008322316184756538
8.43550e-06	0.00828688427931391
8.43575e-06	0.008252539431068528
8.43600e-06	0.008220445973569185
8.43625e-06	0.00819016448571685
8.43650e-06	0.00816270665364289
8.43675e-06	0.008137521362919021
8.43700e-06	0.008114374605117559
8.43725e-06	0.008093680202057018
8.43750e-06	0.008074582096233152
8.43775e-06	0.008056242957755111
8.43800e-06	0.008039421431054116
8.43825e-06	0.008023821312268125
8.43850e-06	0.008010072153510659
8.43875e-06	0.007997812688799708
8.43900e-06	0.007986875522687476
8.43925e-06	0.00797773119085301
8.43950e-06	0.007969173267714869
8.43975e-06	0.00796173716980738
8.44000e-06	0.007955203941946452
8.44025e-06	0.007948670714085525
8.44050e-06	0.007943524545203392
8.44075e-06	0.00793949471242303
8.44100e-06	0.007936414354538837
8.44125e-06	0.007934098155295784
8.44150e-06	0.00793226056364303
8.44175e-06	0.007930808166087912
8.44200e-06	0.00793000517840064
8.44225e-06	0.00792972485030568
8.44250e-06	0.00792944452221072
8.44275e-06	0.007929885330619774
8.44300e-06	0.007930906525822843
8.44325e-06	0.00793218108633788
8.44350e-06	0.007933659560925076
8.44375e-06	0.007935242013333791
8.44400e-06	0.007936908149419778
8.44425e-06	0.00793871077252209
8.44450e-06	0.007940623243429049
8.44475e-06	0.00794265130258425
8.44500e-06	0.007944772389747936
8.44525e-06	0.007946656538203378
8.44550e-06	0.007948349993084886
8.44575e-06	0.007950043447966395
8.44600e-06	0.007951309696480075
8.44625e-06	0.007952232119750092
8.44650e-06	0.007953154543020109
8.44675e-06	0.007954076966290118
8.44700e-06	0.007954939340826783
8.44725e-06	0.007954751213666709
8.44750e-06	0.007954563086506638
8.44775e-06	0.007954374959346566
8.44800e-06	0.007954186832186494
8.44825e-06	0.007953295699552438
8.44850e-06	0.007951838772382985
8.44875e-06	0.00795038184521353
8.44900e-06	0.007948924918044088
8.44925e-06	0.007947467990874636
8.44950e-06	0.00794595263964279
8.44975e-06	0.007943415208955421
8.45000e-06	0.007940877778268038
8.45025e-06	0.007938340347580654
8.45050e-06	0.007935802916893287
8.45075e-06	0.007933265486205902
8.45100e-06	0.00793050232067662
8.45125e-06	0.007927557478695706
