Time(s)	Current(A)
2.50000e-07	0.00026049594551475505
2.50250e-07	0.0002950452930507133
2.50500e-07	0.00032545459777954985
2.50750e-07	0.0003515926934990422
2.51000e-07	0.00037338746997058435
2.51250e-07	0.00039077790633373173
2.51500e-07	0.00040370309731447906
2.51750e-07	0.0004121022288991275
2.52000e-07	0.00041591455235037017
2.52250e-07	0.00041509886708505846
2.52500e-07	0.00040967594136555026
2.52750e-07	0.00039973933549610575
2.53000e-07	0.0003854196261827878
2.53250e-07	0.00036685431488702965
2.53500e-07	0.00034418097541540337
2.53750e-07	0.00031753720163517173
2.54000e-07	0.0002870606967601678
2.54250e-07	0.0002529013459367566
2.54500e-07	0.0002152478563072428
2.54750e-07	0.00017433454172667006
2.55000e-07	0.00013041885109398843
2.55250e-07	8.376258006733637e-05
2.55500e-07	3.462755800943846e-05
2.55750e-07	-1.6724389498147166e-05
2.56000e-07	-7.00314084068558e-05
2.56250e-07	-0.00012502401531754362
2.56500e-07	-0.00018174155236673224
2.56750e-07	-0.00023901244828928876
2.57000e-07	-0.00029716924429554317
2.57250e-07	-0.0003557253944748871
2.57500e-07	-0.00041428154465424343
2.57750e-07	-0.0004720266144327029
2.58000e-07	-0.0005294060579415741
2.58250e-07	-0.0005867855014504574
2.58500e-07	-0.0006418789559002586
2.58750e-07	-0.0006959419112145521
2.59000e-07	-0.0007469539968354778
2.59250e-07	-0.0007965907834062399
2.59500e-07	-0.0008421070041680013
2.59750e-07	-0.0008857657184438084
2.60000e-07	-0.0009243241630454782
2.60250e-07	-0.0009605834612583044
2.60500e-07	-0.0009912922677554185
2.60750e-07	-0.0010194989726383173
2.61000e-07	-0.001041961881007013
2.61250e-07	-0.0010618355480497155
2.61500e-07	-0.001075742644627675
2.61750e-07	-0.0010869600757929543
2.62000e-07	-0.0010920439914402422
2.62250e-07	-0.001094362984651035
2.62500e-07	-0.0010907134815709488
2.62750e-07	-0.0010843734449365937
2.63000e-07	-0.0010723907778422853
2.63250e-07	-0.0010578644739847188
2.63500e-07	-0.001038002789178808
2.63750e-07	-0.0010157359723653092
2.64000e-07	-0.0009884762506848202
2.64250e-07	-0.0009589657815089512
2.64500e-07	-0.0009250125718599045
2.64750e-07	-0.0008890566228719288
2.65000e-07	-0.0008493088225237089
2.65250e-07	-0.0008078516966066318
2.65500e-07	-0.000763241953181955
2.65750e-07	-0.0007172110438932902
2.66000e-07	-0.0006682276826511281
2.66250e-07	-0.000617913388011164
2.66500e-07	-0.000567599093371189
2.66750e-07	-0.0005153765390708478
2.67000e-07	-0.00046229376196124097
2.67250e-07	-0.000409210984851623
2.67500e-07	-0.00035612820774200507
2.67750e-07	-0.0003030454306323983
2.68000e-07	-0.0002499626535227803
2.68250e-07	-0.0001978921655239918
2.68500e-07	-0.00014717877155852788
2.68750e-07	-9.801907967167057e-05
2.69000e-07	-5.0768577804174196e-05
2.69250e-07	-5.781385268293821e-06
2.69500e-07	3.658845554225266e-05
2.69750e-07	7.598694800705945e-05
2.70000e-07	0.00011215410731318131
2.70250e-07	0.0001451600110172237
2.70500e-07	0.00017534506489514236
2.70750e-07	0.00020290389949996848
2.71000e-07	0.0002277770668998934
2.71250e-07	0.0002498295698899177
2.71500e-07	0.00026892483422406204
2.71750e-07	0.00028492632026893644
2.72000e-07	0.0002977564201992437
2.72250e-07	0.0003075442509436193
2.72500e-07	0.0003145882925519158
2.72750e-07	0.00031909562391435413
2.73000e-07	0.00032111420637067955
2.73250e-07	0.00032064467440294584
2.73500e-07	0.0003176866897827356
2.73750e-07	0.0003122398922465354
2.74000e-07	0.0003043408953549314
2.74250e-07	0.0002941557694146341
2.74500e-07	0.00028195663228996554
2.74750e-07	0.000267958400231651
2.75000e-07	0.0002522762752416817
2.75250e-07	0.0002349957661527209
2.75500e-07	0.00021620180994679576
2.75750e-07	0.00019597933513553896
2.76000e-07	0.00017443640217933322
2.76250e-07	0.0001517621610702879
2.76500e-07	0.00012821218634233184
2.76750e-07	0.00010400617268639357
2.77000e-07	7.930135584557744e-05
2.77250e-07	5.4174712368993763e-05
2.77500e-07	2.8921707945418294e-05
2.77750e-07	3.5789858520026824e-06
2.78000e-07	-2.172246403377248e-05
2.78250e-07	-4.6751325285242617e-05
2.78500e-07	-7.126249621000728e-05
2.78750e-07	-9.503336676717231e-05
2.79000e-07	-0.00011788046913621963
2.79250e-07	-0.00013963198528943918
2.79500e-07	-0.00016011635316145575
2.79750e-07	-0.00017916202799319727
2.80000e-07	-0.00019656244584509398
2.80250e-07	-0.0002120126535657966
2.80500e-07	-0.0002251862606612372
2.80750e-07	-0.00023590489435998773
2.81000e-07	-0.0002441327455398631
2.81250e-07	-0.00024987117422058314
2.81500e-07	-0.00025312224225254056
2.81750e-07	-0.0002538880360683856
2.82000e-07	-0.0002521486846895369
2.82250e-07	-0.00024782267838069523
2.82500e-07	-0.0002408151553069526
2.82750e-07	-0.00023112394489360535
2.83000e-07	-0.0002188361846393388
2.83250e-07	-0.0002040622814244538
2.83500e-07	-0.00018691309272635695
2.83750e-07	-0.00016749946952648696
2.84000e-07	-0.0001459185121912283
2.84250e-07	-0.00012222873855273147
2.84500e-07	-9.648024498334935e-05
2.84750e-07	-6.878122547757084e-05
2.85000e-07	-3.9295795727277454e-05
2.85250e-07	-8.202645834097106e-06
2.85500e-07	2.43192709167146e-05
2.85750e-07	5.809101418079518e-05
2.86000e-07	9.294226297980444e-05
2.86250e-07	0.0001287268844974447
2.86500e-07	0.00016549542273018545
2.86750e-07	0.00020258272491949792
2.87000e-07	0.0002400919836397011
2.87250e-07	0.00027779145579884837
2.87500e-07	0.00031549092795798766
2.87750e-07	0.00035290725859265625
2.88000e-07	0.0003891108437586082
2.88250e-07	0.00042531442892455244
2.88500e-07	0.0004615180140905044
2.88750e-07	0.0004957043923827206
2.89000e-07	0.0005289814356405536
2.89250e-07	0.0005599649904851357
2.89500e-07	0.000589914665566427
2.89750e-07	0.0006168840243973428
2.90000e-07	0.0006425098889068359
2.90250e-07	0.0006644842466358362
2.90500e-07	0.0006848125446141033
2.90750e-07	0.0007011307509973198
2.91000e-07	0.0007156412514749437
2.91250e-07	0.0007260310055974028
2.91500e-07	0.0007345631718455912
2.91750e-07	0.0007388766554552691
2.92000e-07	0.0007412884025737276
2.92250e-07	0.0007393934808720441
2.92500e-07	0.0007355571594603902
2.92750e-07	0.0007275219553101961
2.93000e-07	0.0007175939402494722
2.93250e-07	0.0007037301584461738
2.93500e-07	0.000688092175576653
2.93750e-07	0.0006687894859933355
2.94000e-07	0.0006478347862721481
2.94250e-07	0.0006234926787401932
2.94500e-07	0.0005976235644157481
2.94750e-07	0.0005687668919322159
2.95000e-07	0.0005385634605531658
2.95250e-07	0.0005058696049776756
2.95500e-07	0.0004720530931184896
2.95750e-07	0.0004362481958639337
2.96000e-07	0.00039954695598562977
2.96250e-07	0.0003611115431054745
2.96500e-07	0.00032189438379822316
2.96750e-07	0.00028267722449098006
2.97000e-07	0.00024259087030440105
2.97250e-07	0.00020211269247009885
2.97500e-07	0.00016171288575570007
2.97750e-07	0.00012164875647577365
2.98000e-07	8.158462719585571e-05
2.98250e-07	4.2284790103342375e-05
2.98500e-07	4.0161499964265786e-06
2.98750e-07	-3.307631335111565e-05
2.99000e-07	-6.872729221002746e-05
2.99250e-07	-0.00010266952914598301
2.99500e-07	-0.00013463577696222424
2.99750e-07	-0.00016435880930268344
3.00000e-07	-0.00019161002892858548
3.00250e-07	-0.00021630616313794154
3.00500e-07	-0.00023850680833617586
3.00750e-07	-0.0002582493583007543
3.01000e-07	-0.00027548610817290306
3.01250e-07	-0.0002901420249621609
3.01500e-07	-0.00030214141667423913
3.01750e-07	-0.00031140865544573935
3.02000e-07	-0.00031789229163774185
3.02250e-07	-0.0003216319571449158
3.02500e-07	-0.00032275671953156193
3.02750e-07	-0.000321381770304499
3.03000e-07	-0.00031756900893268507
3.03250e-07	-0.0003113631293443018
3.03500e-07	-0.00030280848775137066
3.03750e-07	-0.0002919494875560308
3.04000e-07	-0.0002788456268416279
3.04250e-07	-0.0002636134962810827
3.04500e-07	-0.0002464256985681302
3.04750e-07	-0.0002274460841509954
3.05000e-07	-0.0002068051343158318
3.05250e-07	-0.0001846225990640945
3.05500e-07	-0.00016101795315416693
3.05750e-07	-0.000136110683349202
3.06000e-07	-0.00011002978369807905
3.06250e-07	-8.293994295528108e-05
3.06500e-07	-5.504095228658147e-05
3.06750e-07	-2.6527113853160188e-05
3.07000e-07	2.428196675467397e-06
3.07250e-07	3.165915307624129e-05
3.07500e-07	6.095979818643865e-05
3.07750e-07	9.026044329663602e-05
3.08000e-07	0.00011915893359490703
3.08250e-07	0.00014787613421593824
3.08500e-07	0.0001759348126319237
3.08750e-07	0.0002030623875910166
3.09000e-07	0.00022913461231180437
3.09250e-07	0.00025395558677875074
3.09500e-07	0.00027732948488143534
3.09750e-07	0.0002990605672481539
3.10000e-07	0.0003189101296058529
3.10250e-07	0.00033651752894425855
3.10500e-07	0.000351492042568167
3.10750e-07	0.00036362000112169317
3.11000e-07	0.00037286025775224476
3.11250e-07	0.00037921686286557655
3.11500e-07	0.0003826947350090364
3.11750e-07	0.0003832987927299724
3.12000e-07	0.0003810070531918804
3.12250e-07	0.0003757211924402131
3.12500e-07	0.00036732407007228823
3.12750e-07	0.00035580939400183355
3.13000e-07	0.0003412790249552523
3.13250e-07	0.0003238630835508435
3.13500e-07	0.00030369222790108206
3.13750e-07	0.0002808971342047102
3.14000e-07	0.00025559158756040647
3.14250e-07	0.00022784159724245236
3.14500e-07	0.00019770132709071305
3.14750e-07	0.00016529442407453105
3.15000e-07	0.0001308122645115319
3.15250e-07	9.446390209366652e-05
3.15500e-07	5.645870751646223e-05
3.15750e-07	1.7006058751405453e-05
3.16000e-07	-2.3695239148504164e-05
3.16250e-07	-6.547636265820773e-05
3.16500e-07	-0.00010817587304480656
3.16750e-07	-0.00015176443861714763
3.17000e-07	-0.0001956322464524881
3.17250e-07	-0.00023950005428781932
3.17500e-07	-0.00028336786212315983
3.17750e-07	-0.000327235669958491
3.18000e-07	-0.0003701843592153578
3.18250e-07	-0.00041271871976104516
3.18500e-07	-0.0004537314369302758
3.18750e-07	-0.000494058213728159
3.19000e-07	-0.0005321092558225053
3.19250e-07	-0.0005691344213337927
3.19500e-07	-0.0006030864297263819
3.19750e-07	-0.0006356530921385187
3.20000e-07	-0.000664348723651273
3.20250e-07	-0.0006912993363154957
3.20500e-07	-0.0007137750111009018
3.20750e-07	-0.0007342334323051366
3.21000e-07	-0.0007500091671360387
3.21250e-07	-0.0007636739976120814
3.21500e-07	-0.0007725361787950119
3.21750e-07	-0.0007792333776367334
3.22000e-07	-0.0007810079642655574
3.22250e-07	-0.0007805634905668222
3.22500e-07	-0.0007751980496316813
3.22750e-07	-0.0007676142899065882
3.23000e-07	-0.0007553593586435997
3.23250e-07	-0.000740998713788993
3.23500e-07	-0.0007222715992006003
3.23750e-07	-0.0007015761272972911
3.24000e-07	-0.0006768189677070508
3.24250e-07	-0.0006502308432511724
3.24500e-07	-0.0006199618832876262
3.24750e-07	-0.0005880336425003884
3.25000e-07	-0.000552960808481188
3.25250e-07	-0.0005164704258545353
3.25500e-07	-0.00047740608632277796
3.25750e-07	-0.00043718143486596743
3.26000e-07	-0.0003949533825881445
3.26250e-07	-0.0003518222188951205
3.26500e-07	-0.00030710766502512745
3.26750e-07	-0.0002616793359941443
3.27000e-07	-0.00021625100696317075
3.27250e-07	-0.00017037058021619818
3.27500e-07	-0.00012428635271012685
3.27750e-07	-7.820212520406528e-05
3.28000e-07	-3.2675547483156224e-05
3.28250e-07	1.2012603759497136e-05
3.28500e-07	5.565377485931918e-05
3.28750e-07	9.795372210049506e-05
3.29000e-07	0.00013860936121347668
3.29250e-07	0.00017731582067429544
3.29500e-07	0.00021376823835250966
3.29750e-07	0.0002476617940062413
3.30000e-07	0.00027864019746100206
3.30250e-07	0.00030620681495690285
3.30500e-07	0.000329847326066627
3.30750e-07	0.0003492811797066181
3.31000e-07	0.00036444575155302394
3.31250e-07	0.000375334535218772
3.31500e-07	0.0003819421213402108
3.31750e-07	0.0003842631146911569
3.32000e-07	0.0003822599045534186
3.32250e-07	0.00037580702408793247
3.32500e-07	0.0003647678510025089
3.32750e-07	0.0003491523115891661
3.33000e-07	0.00032910678949354705
3.33250e-07	0.0003048128125705821
3.33500e-07	0.00027645258181646675
3.33750e-07	0.00024420833637438396
3.34000e-07	0.00020824212331691292
3.34250e-07	0.00016866090417406952
3.34500e-07	0.00012556471534948553
3.34750e-07	7.914533866023376e-05
3.35000e-07	2.9680026032713434e-05
3.35250e-07	-2.253194672133348e-05
3.35500e-07	-7.71909056451346e-05
3.35750e-07	-0.00013399719226926492
3.36000e-07	-0.00019266382234808642
3.36250e-07	-0.0002533799361675077
3.36500e-07	-0.0003147715997886875
3.36750e-07	-0.0003775980024489584
3.37000e-07	-0.00044107116994555873
3.37250e-07	-0.0005045443374421591
3.37500e-07	-0.0005677880550706144
3.37750e-07	-0.0006300489981364109
3.38000e-07	-0.0006923099412022074
3.38250e-07	-0.0007545708842679908
3.38500e-07	-0.000814142436925885
3.38750e-07	-0.0008725016414845406
3.39000e-07	-0.0009275658377656608
3.39250e-07	-0.000981144679964137
3.39500e-07	-0.0010302737604484253
3.39750e-07	-0.0010773969364941312
3.40000e-07	-0.0011188675720997063
3.40250e-07	-0.0011577901036299674
3.40500e-07	-0.0011899967979642323
3.40750e-07	-0.0012191760655495098
3.41000e-07	-0.0012412937700258396
3.41250e-07	-0.0012602281982520423
3.41500e-07	-0.001271959916362019
3.41750e-07	-0.0012804447306780525
3.42000e-07	-0.001281556198657853
3.42250e-07	-0.0012793438418818538
3.42500e-07	-0.0012696750473960878
3.42750e-07	-0.001256644971462302
3.43000e-07	-0.0012365248863626746
3.43250e-07	-0.0012132087018382302
3.43500e-07	-0.001183296923887219
3.43750e-07	-0.0011504119237775465
3.44000e-07	-0.0011114074105109178
3.44250e-07	-0.0010696442869204187
3.44500e-07	-0.0010222923757591902
3.44750e-07	-0.0009724210996264383
3.45000e-07	-0.0009177734135817068
3.45250e-07	-0.0008609725736248691
3.45500e-07	-0.0008002877034422479
3.45750e-07	-0.0007378519544553481
3.46000e-07	-0.0006724129197293101
3.46250e-07	-0.0006056200362847327
3.46500e-07	-0.0005364420037957852
3.46750e-07	-0.00046618877192268525
3.47000e-07	-0.0003959355400495703
3.47250e-07	-0.0003250424490990153
3.47500e-07	-0.00025386091659902906
3.47750e-07	-0.00018267938409902777
3.48000e-07	-0.00011239969157177476
3.48250e-07	-4.3445478785538724e-05
3.48500e-07	2.388367092262822e-05
3.48750e-07	8.91420645092441e-05
3.49000e-07	0.00015186408200773587
3.49250e-07	0.00021157953435532327
3.49500e-07	0.00026781821151759556
3.49750e-07	0.00032010998448291463
3.50000e-07	0.0003679828679250565
3.50250e-07	0.0004109970162654364
3.50500e-07	0.0004488319515003604
3.50750e-07	0.00048131741329141947
3.51000e-07	0.0005083634854905831
3.51250e-07	0.0005298959179865204
3.51500e-07	0.0005458406214700255
3.51750e-07	0.0005561236580742607
3.52000e-07	0.0005606699185148202
3.52250e-07	0.0005594244354634842
3.52500e-07	0.0005524069719599978
3.52750e-07	0.0005397314874679687
3.53000e-07	0.000521562258591714
3.53250e-07	0.0004980732538922282
3.53500e-07	0.0004694386547004693
3.53750e-07	0.0004358326855886988
3.54000e-07	0.0003974288399012155
3.54250e-07	0.00035441320451291174
3.54500e-07	0.00030701873425137275
3.54750e-07	0.0002555373084999112
3.55000e-07	0.0002002922686267443
3.55250e-07	0.0001416131150500474
3.55500e-07	7.982941403711427e-05
3.55750e-07	1.5270707766616915e-05
3.56000e-07	-5.1733901501879e-05
3.56250e-07	-0.00012084745653315623
3.56500e-07	-0.00019170365793748628
3.56750e-07	-0.00026434172945748055
3.57000e-07	-0.0003375554029646544
3.57250e-07	-0.0004107690764718127
3.57500e-07	-0.0004838394631648831
3.57750e-07	-0.0005568452577123813
3.58000e-07	-0.0006298510522598641
3.58250e-07	-0.0007007599230545971
3.58500e-07	-0.0007707235233082834
3.58750e-07	-0.0008375243754065422
3.59000e-07	-0.0009028994948542504
3.59250e-07	-0.0009637708692738975
3.59500e-07	-0.0010226120041610738
3.59750e-07	-0.0010756001120830285
3.60000e-07	-0.0011259497387731778
3.60250e-07	-0.001169126987108788
3.60500e-07	-0.0012090710048804196
3.60750e-07	-0.0012411373505962504
3.61000e-07	-0.0012696525269781662
3.61250e-07	-0.0012900725333149536
3.61500e-07	-0.00130684332457734
3.61750e-07	-0.0013153268045160648
3.62000e-07	-0.0013200744541708113
3.62250e-07	-0.0013163615082709475
3.62500e-07	-0.0013088346174305653
3.62750e-07	-0.0012930584503327192
3.63000e-07	-0.0012735635987472438
3.63250e-07	-0.0012463364348579298
3.63500e-07	-0.001215623628238226
3.63750e-07	-0.0011777113613339525
3.64000e-07	-0.0011365536556246143
3.64250e-07	-0.0010887409768495335
3.64500e-07	-0.0010379283082168282
3.64750e-07	-0.0009812461227325863
3.65000e-07	-0.0009219180225542082
3.65250e-07	-0.0008576971604681076
3.65500e-07	-0.0007912706942489804
3.65750e-07	-0.0007209380307428577
3.66000e-07	-0.0006488444957610257
3.66250e-07	-0.0005738385599912409
3.66500e-07	-0.0004975197454556318
3.66750e-07	-0.00041921429481675554
3.67000e-07	-0.0003400132901160203
3.67250e-07	-0.0002608122854153019
3.67500e-07	-0.0001816112807145667
3.67750e-07	-0.00010241027601383146
3.68000e-07	-2.40409583879912e-05
3.68250e-07	5.293675160644898e-05
3.68500e-07	0.00012810681397332094
3.68750e-07	0.00020096567159897887
3.69000e-07	0.0002709920069809492
3.69250e-07	0.0003376607055014404
3.69500e-07	0.0004004466221652906
3.69750e-07	0.00045882468769847947
3.70000e-07	0.0005124000227493092
3.70250e-07	0.0005612372725544882
3.70500e-07	0.0006057845157270419
3.70750e-07	0.0006462988466109841
3.71000e-07	0.0006826913666594971
3.71250e-07	0.0007147695337031598
3.71500e-07	0.0007423386871864009
3.71750e-07	0.0007652042388987987
3.72000e-07	0.0007832531673910865
3.72250e-07	0.0007966603002100641
3.72500e-07	0.0008058405929014627
3.72750e-07	0.0008110894110984109
3.73000e-07	0.0008124853194364757
3.73250e-07	0.0008087244464486152
3.73500e-07	0.0008031778966478323
3.73750e-07	0.0007924037118591081
3.74000e-07	0.0007792729657757727
3.74250e-07	0.0007614818608659533
3.74500e-07	0.0007415899166177241
3.74750e-07	0.0007179190601537309
3.75000e-07	0.0006925447109470503
3.75250e-07	0.0006638295147886804
3.75500e-07	0.0006336083009692214
3.75750e-07	0.0006004535724867299
3.76000e-07	0.0005659764473319218
3.76250e-07	0.0005289414840356016
3.76500e-07	0.0004907534749784076
3.76750e-07	0.0004525654659212137
3.77000e-07	0.00041292958332768507
3.77250e-07	0.00037264101500855316
3.77500e-07	0.0003323524466894212
3.77750e-07	0.0002920779208525461
3.78000e-07	0.00025180972521473383
3.78250e-07	0.00021154152957692163
3.78500e-07	0.00017224834694643922
3.78750e-07	0.00013427976722637166
3.79000e-07	9.778460636400047e-05
3.79250e-07	6.303681286203407e-05
3.79500e-07	3.0309965624327454e-05
3.79750e-07	-1.2236981495890553e-07
3.80000e-07	-2.803668078932521e-05
3.80250e-07	-5.339201429612578e-05
3.80500e-07	-7.63135685013436e-05
3.80750e-07	-9.687522536315347e-05
3.81000e-07	-0.00011502907485169193
3.81250e-07	-0.0001306895071683421
3.81500e-07	-0.00014377009898217103
3.81750e-07	-0.0001541844738659692
3.82000e-07	-0.0001618776032597437
3.82250e-07	-0.0001669088149620078
3.82500e-07	-0.00016944150898027296
3.82750e-07	-0.00016960694391856157
3.83000e-07	-0.00016746007185836756
3.83250e-07	-0.00016303220915452277
3.83500e-07	-0.00015635421787206266
3.83750e-07	-0.00014745694157529307
3.84000e-07	-0.00013639088075650556
3.84250e-07	-0.00012327815706479495
3.84500e-07	-0.00010830608574840789
3.84750e-07	-9.16418228565711e-05
3.85000e-07	-7.340471259383217e-05
3.85250e-07	-5.369931888325788e-05
3.85500e-07	-3.262987421584635e-05
3.85750e-07	-1.0300618657146141e-05
3.86000e-07	1.3171908978683477e-05
3.86250e-07	3.7626311119407765e-05
3.86500e-07	6.286036744769807e-05
3.86750e-07	8.881670598967004e-05
3.87000e-07	0.00011499869012950367
3.87250e-07	0.00014149966011981735
3.87500e-07	0.00016814442548040867
3.87750e-07	0.00019478919084099433
3.88000e-07	0.0002209162667197131
3.88250e-07	0.00024680997378089404
3.88500e-07	0.0002727036808420805
3.88750e-07	0.0002972767927512687
3.89000e-07	0.00032125459465348323
3.89250e-07	0.00034358073985435943
3.89500e-07	0.00036516233608358483
3.89750e-07	0.0003846151622163916
3.90000e-07	0.00040310836182095504
3.90250e-07	0.0004193234996821173
3.90500e-07	0.0004345117119557565
3.90750e-07	0.0004475327780350701
3.91000e-07	0.00045957691805638683
3.91250e-07	0.0004693280812120847
3.91500e-07	0.00047804559520453585
3.91750e-07	0.00048432708958898445
3.92000e-07	0.0004895104526894977
3.92250e-07	0.0004923201147121575
3.92500e-07	0.0004940597379700476
3.92750e-07	0.0004936509216260333
3.93000e-07	0.0004922736119534987
3.93250e-07	0.0004887022561458118
