Time(s)	Current(A)
7.25000e-06	-3.0238800896599953e-05
7.25025e-06	-4.360789870499324e-05
7.25050e-06	-5.5578745514223985e-05
7.25075e-06	-6.61193559670904e-05
7.25100e-06	-7.517860982261033e-05
7.25125e-06	-8.27054112169358e-05
7.25150e-06	-8.864878403368057e-05
7.25175e-06	-9.298407580888085e-05
7.25200e-06	-9.575835379348108e-05
7.25225e-06	-9.706728877802219e-05
7.25250e-06	-9.698136255430308e-05
7.25275e-06	-9.553078615696116e-05
7.25300e-06	-9.273378585980862e-05
7.25325e-06	-8.860859648721996e-05
7.25350e-06	-8.31735315444555e-05
7.25375e-06	-7.646338967245715e-05
7.25400e-06	-6.855790255028404e-05
7.25425e-06	-5.9567237592675725e-05
7.25450e-06	-4.958577264306493e-05
7.25475e-06	-3.8682652431350976e-05
7.25500e-06	-2.6919512231698255e-05
7.25525e-06	-1.4357994594381109e-05
7.25550e-06	-1.0597851508697954e-06
7.25575e-06	1.2903105356829037e-05
7.25600e-06	2.743052976269089e-05
7.25625e-06	4.240328525975568e-05
7.25650e-06	5.777256154470614e-05
7.25675e-06	7.330583610820122e-05
7.25700e-06	8.897675714793218e-05
7.25725e-06	0.00010474428844282693
7.25750e-06	0.0001204375284338552
7.25775e-06	0.00013607862541323485
7.25800e-06	0.00015138656798506148
7.25825e-06	0.00016646067869139828
7.25850e-06	0.000180923486159715
7.25875e-06	0.00019495723679067772
7.25900e-06	0.00020812907661914713
7.25925e-06	0.00022069596509125504
7.25950e-06	0.0002321659142671199
7.25975e-06	0.00024286595208645328
7.26000e-06	0.00025242758052576944
7.26025e-06	0.0002611901909035133
7.26050e-06	0.00026885640066861367
7.26075e-06	0.0002757530771643083
7.26100e-06	0.0002814847606735938
7.26125e-06	0.00028639876782323055
7.26150e-06	0.00029007907845582923
7.26175e-06	0.0002928934916205715
7.26200e-06	0.0002945268196962821
7.26225e-06	0.00029533117681053276
7.26250e-06	0.0002950592869178149
7.26275e-06	0.00029403200901418356
7.26300e-06	0.0002919640799714236
7.26325e-06	0.00028916574667300866
7.26350e-06	0.00028536226404743994
7.26375e-06	0.00028085329490626956
7.26400e-06	0.0002754506753850427
7.26425e-06	0.00026942082737567435
7.26450e-06	0.0002624753085142504
7.26475e-06	0.00025488710560437347
7.26500e-06	0.0002472989026944709
7.26525e-06	0.00023881298220111471
7.26550e-06	0.00022969697856204999
7.26575e-06	0.00022058097492295438
7.26600e-06	0.00021081733255689998
7.26625e-06	0.00020059913047865068
7.26650e-06	0.00019038092840036676
7.26675e-06	0.00018016272632211745
7.26700e-06	0.00016976601904686412
7.26725e-06	0.00015924402391031417
7.26750e-06	0.00014872202877379986
7.26775e-06	0.00013820003363724988
7.26800e-06	0.00012792778246136855
7.26825e-06	0.00011783081966484437
7.26850e-06	0.00010814155054519055
7.26875e-06	9.873843034271252e-05
7.26900e-06	8.974563738122682e-05
7.26925e-06	8.136963112332236e-05
7.26950e-06	7.35941180613189e-05
7.26975e-06	6.639501317297766e-05
7.27000e-06	5.94183375233148e-05
7.27025e-06	5.225799215488385e-05
7.27050e-06	4.472884675617495e-05
7.27075e-06	3.683794367246993e-05
7.27100e-06	2.8664413443913422e-05
7.27125e-06	2.028737462781743e-05
7.27150e-06	1.1785639658410212e-05
7.27175e-06	3.168137917858918e-06
7.27200e-06	-5.7267761144579496e-06
7.27225e-06	-1.5128282134928579e-05
7.27250e-06	-2.5129437520663595e-05
7.27275e-06	-3.5683157212747436e-05
7.27300e-06	-4.670488205646451e-05
7.27325e-06	-5.81100624236815e-05
7.27350e-06	-6.981434407394855e-05
7.27375e-06	-8.188709674237466e-05
7.27400e-06	-9.414194485821931e-05
7.27425e-06	-0.00010691618226037962
7.27450e-06	-0.00012005496463889857
7.27475e-06	-0.00013367348962094977
7.27500e-06	-0.00014762873266925517
7.27525e-06	-0.0001615839757175133
7.27550e-06	-0.00017581522654282265
7.27575e-06	-0.00019024019959393526
7.27600e-06	-0.00020466517264499897
7.27625e-06	-0.00021909014569611155
7.27650e-06	-0.0002335151187471753
7.27675e-06	-0.0002477731580371952
7.27700e-06	-0.0002619140311369204
7.27725e-06	-0.0002760549042365977
7.27750e-06	-0.0002901957773362749
7.27775e-06	-0.0003043366504360001
7.27800e-06	-0.00031769751486612644
7.27825e-06	-0.0003305109127821603
7.27850e-06	-0.0003433243106982376
7.27875e-06	-0.0003551749813301715
7.27900e-06	-0.00036634994030553626
7.27925e-06	-0.0003775248992809389
7.27950e-06	-0.00038738054525461316
7.27975e-06	-0.0003963102019179018
7.28000e-06	-0.0004052398585812207
7.28025e-06	-0.00041332359963851836
7.28050e-06	-0.00042081361592573644
7.28075e-06	-0.00042830363221292914
7.28100e-06	-0.0004349615961578966
7.28125e-06	-0.0004410355655742375
7.28150e-06	-0.0004471095349905578
7.28175e-06	-0.00045167538124107285
7.28200e-06	-0.0004551827175485972
7.28225e-06	-0.0004586900538561096
7.28250e-06	-0.0004621973901636221
7.28275e-06	-0.0004657047264711464
7.28300e-06	-0.0004692120627786589
7.28325e-06	-0.00047271939908617136
7.28350e-06	-0.0004762267353936957
7.28375e-06	-0.0004797340717012082
7.28400e-06	-0.00048301759073593735
7.28425e-06	-0.0004839695892844249
7.28450e-06	-0.0004849215878329092
7.28475e-06	-0.0004858735863813968
7.28500e-06	-0.00048682558492988114
7.28525e-06	-0.00048777758347836545
7.28550e-06	-0.0004887295820268531
7.28575e-06	-0.0004896815805753373
7.28600e-06	-0.0004906335791238217
7.28625e-06	-0.0004915855776723092
7.28650e-06	-0.0004918766470406139
7.28675e-06	-0.0004917038284953619
7.28700e-06	-0.0004915310099501092
7.28725e-06	-0.0004913581914048571
7.28750e-06	-0.0004911853728596051
7.28775e-06	-0.0004910125543143524
7.28800e-06	-0.0004908397357691003
7.28825e-06	-0.0004905394800836855
7.28850e-06	-0.0004901497797938684
7.28875e-06	-0.0004897600795040528
7.28900e-06	-0.0004893703792142358
7.28925e-06	-0.0004889806789244201
7.28950e-06	-0.0004885909786346045
7.28975e-06	-0.0004882012783447875
7.29000e-06	-0.0004870699390460244
7.29025e-06	-0.00048541806383696083
7.29050e-06	-0.00048376618862789163
7.29075e-06	-0.000482114313418828
7.29100e-06	-0.00048046243820976445
7.29125e-06	-0.00047881056300069525
7.29150e-06	-0.0004771586877916317
7.29175e-06	-0.00047550681258256807
7.29200e-06	-0.0004738549373734989
7.29225e-06	-0.000471976061673669
7.29250e-06	-0.00046773250568023976
7.29275e-06	-0.00046348894968679624
7.29300e-06	-0.0004592453936933671
7.29325e-06	-0.00045500183769992355
7.29350e-06	-0.00045075828170649434
7.29375e-06	-0.0004465147257130652
7.29400e-06	-0.00044227116971962165
7.29425e-06	-0.0004380276137261925
7.29450e-06	-0.00043378405773276333
7.29475e-06	-0.0004285215268905001
7.29500e-06	-0.0004225438057817569
7.29525e-06	-0.0004165660846730137
7.29550e-06	-0.00041058836356425025
7.29575e-06	-0.0004046106424555071
7.29600e-06	-0.00039863292134676386
7.29625e-06	-0.00039265520023800044
7.29650e-06	-0.0003866675938643564
7.29675e-06	-0.00038057701198161
7.29700e-06	-0.0003744864300988429
7.29725e-06	-0.0003683958482160965
7.29750e-06	-0.0003623052663333295
7.29775e-06	-0.0003562146844505831
7.29800e-06	-0.0003501241025678367
7.29825e-06	-0.00034403352068506965
7.29850e-06	-0.0003390396381139198
7.29875e-06	-0.00033481549846015263
7.29900e-06	-0.00033059135880637115
7.29925e-06	-0.00032636721915260404
7.29950e-06	-0.00032214307949883687
7.29975e-06	-0.0003179189398450554
7.30000e-06	-0.0003136948001912883
7.30025e-06	-0.0003094706605375211
7.30050e-06	-0.00030524652088373964
7.30075e-06	-0.0003031459725437452
7.30100e-06	-0.00030253591421850585
7.30125e-06	-0.0003019258558932644
7.30150e-06	-0.00030131579756802505
7.30175e-06	-0.00030070573924278365
7.30200e-06	-0.00030009568091754425
7.30225e-06	-0.0002994856225923049
7.30250e-06	-0.0002988755642670635
7.30275e-06	-0.00029826550594182417
7.30300e-06	-0.00029959021846562815
7.30325e-06	-0.00030227289314181715
7.30350e-06	-0.00030495556781799703
7.30375e-06	-0.0003076382424941769
7.30400e-06	-0.0003103209171703659
7.30425e-06	-0.0003130035918465458
7.30450e-06	-0.0003156862665227257
7.30475e-06	-0.0003183689411989146
7.30500e-06	-0.00032217147915001594
7.30525e-06	-0.00032676001816365504
7.30550e-06	-0.0003313485571773097
7.30575e-06	-0.0003359370961909488
7.30600e-06	-0.00034052563520460343
7.30625e-06	-0.0003451141742182425
7.30650e-06	-0.0003497027132318816
7.30675e-06	-0.0003542912522455362
7.30700e-06	-0.0003590898026042809
7.30725e-06	-0.0003640357541182269
7.30750e-06	-0.0003689817056321898
7.30775e-06	-0.0003739276571461358
7.30800e-06	-0.00037887360866008187
7.30825e-06	-0.00038342993975809325
7.30850e-06	-0.00038771280706121134
7.30875e-06	-0.0003919956743643295
7.30900e-06	-0.0003962785416674621
7.30925e-06	-0.0004005614089705802
7.30950e-06	-0.0004044126419599982
7.30975e-06	-0.0004079609227616343
7.31000e-06	-0.0004115092035632584
7.31025e-06	-0.0004161669615927473
7.31050e-06	-0.00042160343100546656
7.31075e-06	-0.00042703990041818575
7.31100e-06	-0.00043378136354076845
7.31125e-06	-0.00044143876565819467
7.31150e-06	-0.00044909616777562083
7.31175e-06	-0.0004580577997553328
7.31200e-06	-0.0004679348346063722
7.31225e-06	-0.0004778118694574117
7.31250e-06	-0.0004895292354734585
7.31275e-06	-0.0005025382790390993
7.31300e-06	-0.0005155473226047401
7.31325e-06	-0.0005299834614880425
7.31350e-06	-0.0005454212391078514
7.31375e-06	-0.0005608590167276603
7.31400e-06	-0.0005776505374948141
7.31425e-06	-0.0005953922131386854
7.31450e-06	-0.0006131338887826167
7.31475e-06	-0.0006323898865789402
7.31500e-06	-0.0006527087452148624
7.31525e-06	-0.0006730276038508535
7.31550e-06	-0.0006933464624867758
7.31575e-06	-0.000713665321122698
7.31600e-06	-0.0007339841797586892
7.31625e-06	-0.0007548695339911027
7.31650e-06	-0.0007761524958160115
7.31675e-06	-0.0007974354576409925
7.31700e-06	-0.0008187184194659013
7.31725e-06	-0.0008400013812908102
7.31750e-06	-0.0008612843431157911
7.31775e-06	-0.0008817234300616015
7.31800e-06	-0.0009015702245675156
7.31825e-06	-0.0009214170190734968
7.31850e-06	-0.000940030598741799
7.31875e-06	-0.0009577786190207699
7.31900e-06	-0.0009755266392996808
7.31925e-06	-0.0009917308209870133
7.31950e-06	-0.001006851425062556
7.31975e-06	-0.0010200269539467062
7.32000e-06	-0.0010318372883460487
7.32025e-06	-0.0010405198378632579
7.32050e-06	-0.0010470070816720638
7.32075e-06	-0.001050167210579087
7.32100e-06	-0.0010509921295495555
7.32125e-06	-0.001048608615012874
7.32150e-06	-0.0010439731897283692
7.32175e-06	-0.0010360402685874947
7.32200e-06	-0.0010257929262990006
7.32225e-06	-0.0010118293514640173
7.32250e-06	-0.0009952574557789142
7.32275e-06	-0.0009751665712369771
7.32300e-06	-0.0009526058057357889
7.32325e-06	-0.00092692236857102
7.32350e-06	-0.0008990472145246782
7.32375e-06	-0.00086831568660673
7.32400e-06	-0.0008355793488630304
7.32425e-06	-0.0008007054121323808
7.32450e-06	-0.0007630129694572737
7.32475e-06	-0.0007232198024115311
7.32500e-06	-0.000681568592542307
7.32525e-06	-0.0006383018809758778
7.32550e-06	-0.0005936622292321643
7.32575e-06	-0.0005478629698175521
7.32600e-06	-0.0005010509872449902
7.32625e-06	-0.00045335935135328725
7.32650e-06	-0.00040499395198834924
7.32675e-06	-0.0003562267687797827
7.32700e-06	-0.000307346657245202
7.32725e-06	-0.0002586424729015609
7.32750e-06	-0.00021040295155901512
7.32775e-06	-0.00016289855802469568
7.32800e-06	-0.00011635812556663936
7.32825e-06	-7.100179351931756e-05
7.32850e-06	-2.7095296571936104e-05
7.32875e-06	1.5054243387123202e-05
7.32900e-06	5.512914368196869e-05
7.32925e-06	9.28117546047228e-05
7.32950e-06	0.00012778547156435885
7.32975e-06	0.0001599715608875161
7.33000e-06	0.0001898866375169675
7.33025e-06	0.00021832300368725954
7.33050e-06	0.000245661238939679
7.33075e-06	0.0002718296512715394
7.33100e-06	0.00029663319791088487
7.33125e-06	0.00031987688829178613
7.33150e-06	0.0003413664056946603
7.33175e-06	0.00036068655896427616
7.33200e-06	0.000379015001784624
7.33225e-06	0.0003963152857936786
7.33250e-06	0.0004128939335673915
7.33275e-06	0.0004282115487701144
7.33300e-06	0.0004426440800859966
7.33325e-06	0.00045707661140182993
7.33350e-06	0.00046962180642363906
7.33375e-06	0.00048084233229626027
7.33400e-06	0.0004920628581688434
7.33425e-06	0.0005021792537465133
7.33450e-06	0.0005115206908056892
7.33475e-06	0.0005208621278648334
7.33500e-06	0.0005291677761872076
7.33525e-06	0.0005367464330407203
7.33550e-06	0.0005443250898942074
7.33575e-06	0.0005504402359323314
7.33600e-06	0.0005555281842035379
7.33625e-06	0.0005606161324747443
7.33650e-06	0.000565704080745968
7.33675e-06	0.0005707920290171744
7.33700e-06	0.0005758799772883808
7.33725e-06	0.0005809679255596046
7.33750e-06	0.0005848540988947873
7.33775e-06	0.0005878967796383369
7.33800e-06	0.0005909394603818967
7.33825e-06	0.0005939821411254462
7.33850e-06	0.0005970248218689959
7.33875e-06	0.0006000675026125557
7.33900e-06	0.0006031101833561053
7.33925e-06	0.0006056988356962577
7.33950e-06	0.0006079688180565688
7.33975e-06	0.0006097927818268251
7.34000e-06	0.0006113036974837148
7.34025e-06	0.0006128146131405992
7.34050e-06	0.0006134872345659425
7.34075e-06	0.0006135714804538382
7.34100e-06	0.0006136557263417337
7.34125e-06	0.0006123758561895825
7.34150e-06	0.0006101385507146053
7.34175e-06	0.0006079012452396357
7.34200e-06	0.000605663939764666
7.34225e-06	0.0006034266342896888
7.34250e-06	0.0006011893288147192
7.34275e-06	0.0005986752060117952
7.34300e-06	0.0005932774573798517
7.34325e-06	0.0005878797087479264
7.34350e-06	0.0005824819601160011
7.34375e-06	0.0005770842114840575
7.34400e-06	0.0005716864628521322
7.34425e-06	0.0005662887142201887
7.34450e-06	0.0005594741926738803
7.34475e-06	0.000551665277400993
7.34500e-06	0.0005438563621280794
7.34525e-06	0.0005360474468551921
7.34550e-06	0.0005282385315823048
7.34575e-06	0.0005204296163093911
7.34600e-06	0.0005126207010365038
7.34625e-06	0.0005043335129353108
7.34650e-06	0.0004957106383629406
7.34675e-06	0.0004870877637905997
7.34700e-06	0.00047846488921825876
7.34725e-06	0.0004698420146458886
7.34750e-06	0.00046121914007354767
7.34775e-06	0.00045259626550120673
7.34800e-06	0.00044453198208725876
7.34825e-06	0.0004368597583591086
7.34850e-06	0.0004291875346309325
7.34875e-06	0.0004215153109027824
7.34900e-06	0.0004138430871746322
7.34925e-06	0.00040682538278759685
7.34950e-06	0.0004006313030192451
7.34975e-06	0.0003946928701413618
7.35000e-06	0.00038811709765273144
7.35025e-06	0.0003810939941175561
7.35050e-06	0.0003725036634331398
7.35075e-06	0.00036281333935572426
7.35100e-06	0.00035177182588976014
7.35125e-06	0.00033978194996033006
7.35150e-06	0.00032667003892019106
7.35175e-06	0.0003127706024668337
7.35200e-06	0.00029776040050498356
7.35225e-06	0.0002809409619992935
7.35250e-06	0.0002623751228360556
7.35275e-06	0.0002421636928401832
7.35300e-06	0.00022047122761836548
7.35325e-06	0.0001974622605777237
7.35350e-06	0.00017330099330065187
7.35375e-06	0.0001480783042649378
7.35400e-06	0.00012170827250924552
7.35425e-06	9.404080807268631e-05
7.35450e-06	6.50760960527305e-05
7.35475e-06	3.496492620115672e-05
7.35500e-06	3.898007275435356e-06
7.35525e-06	-2.7933970382310542e-05
7.35550e-06	-6.034054860925556e-05
7.35575e-06	-9.329622565774054e-05
7.35600e-06	-0.00012649369540513298
7.35625e-06	-0.00016015489688378547
7.35650e-06	-0.00019414157883976713
7.35675e-06	-0.00022812826079563365
7.35700e-06	-0.00026183395229392324
7.35725e-06	-0.0002953424243609168
7.35750e-06	-0.0003288508964279103
7.35775e-06	-0.0003611426960877177
7.35800e-06	-0.00039258054703303645
7.35825e-06	-0.0004240183979783552
7.35850e-06	-0.00045393695891125406
7.35875e-06	-0.00048278917220177407
7.35900e-06	-0.0005098682016603848
7.35925e-06	-0.0005357026824266794
7.35950e-06	-0.0005593259954214634
7.35975e-06	-0.0005813973509096147
7.36000e-06	-0.000601761438622949
7.36025e-06	-0.0006209272423012827
7.36050e-06	-0.0006385993021087784
7.36075e-06	-0.0006552229444044338
7.36100e-06	-0.0006718465867000328
7.36125e-06	-0.0006862014420340988
7.36150e-06	-0.0006989638985455997
7.36175e-06	-0.0007117263550570575
7.36200e-06	-0.0007225728081879248
7.36225e-06	-0.0007320744715350101
7.36250e-06	-0.0007415761348820954
7.36275e-06	-0.0007484209268122175
7.36300e-06	-0.0007534009341733725
7.36325e-06	-0.0007583809415345275
7.36350e-06	-0.0007633609488956995
7.36375e-06	-0.0007683409562568545
7.36400e-06	-0.0007733209636180095
7.36425e-06	-0.0007783009709791813
7.36450e-06	-0.0007832809783403363
7.36475e-06	-0.000785423619663364
7.36500e-06	-0.0007855747922347144
7.36525e-06	-0.0007857259648060643
7.36550e-06	-0.0007858771373774142
7.36575e-06	-0.0007860283099487645
7.36600e-06	-0.0007861794825201144
7.36625e-06	-0.0007863306550914648
7.36650e-06	-0.0007864818276628147
7.36675e-06	-0.0007854875597500385
7.36700e-06	-0.0007836893388399005
7.36725e-06	-0.0007818911179297685
7.36750e-06	-0.0007800928970196367
7.36775e-06	-0.0007782946761094986
7.36800e-06	-0.0007762912560939939
7.36825e-06	-0.0007741438125014456
7.36850e-06	-0.0007719963689088899
7.36875e-06	-0.0007698489253163416
7.36900e-06	-0.0007677014817237932
7.36925e-06	-0.0007657619346446806
7.36950e-06	-0.0007639683043787393
7.36975e-06	-0.000762174674112798
7.37000e-06	-0.0007593758318149302
7.37025e-06	-0.0007558714589921885
7.37050e-06	-0.000752367086169435
7.37075e-06	-0.0007469787801641306
7.37100e-06	-0.0007402681935603997
7.37125e-06	-0.0007335576069566461
7.37150e-06	-0.0007251918196220168
7.37175e-06	-0.0007156642926709323
7.37200e-06	-0.0007061367657198155
7.37225e-06	-0.0006943383882784159
7.37250e-06	-0.0006809461636809817
7.37275e-06	-0.0006675539390835021
7.37300e-06	-0.0006521050605417262
7.37325e-06	-0.0006352126734756897
7.37350e-06	-0.000618320286409596
7.37375e-06	-0.0005997199475258599
7.37400e-06	-0.0005799208444967876
7.37425e-06	-0.0005601217414676484
7.37450e-06	-0.0005386312176508689
7.37475e-06	-0.0005159535323614588
7.37500e-06	-0.0004932758470721255
7.37525e-06	-0.0004695574137366811
7.37550e-06	-0.00044510850813077546
7.37575e-06	-0.00042065960252495266
7.37600e-06	-0.00039567814408724355
7.37625e-06	-0.00037032290154516645
7.37650e-06	-0.0003447230624630435
7.37675e-06	-0.0003189515478340297
7.37700e-06	-0.00029328846251085834
7.37725e-06	-0.0002677014807188554
7.37750e-06	-0.00024257802330777332
7.37775e-06	-0.00021777990084021615
7.37800e-06	-0.0001936835291468948
7.37825e-06	-0.00017007969691412895
7.37850e-06	-0.00014715247688912422
7.37875e-06	-0.0001252753209474693
7.37900e-06	-0.000104473735212929
7.37925e-06	-8.491232322321027e-05
7.37950e-06	-6.675575054719142e-05
7.37975e-06	-5.018581255162726e-05
7.38000e-06	-3.541068850142138e-05
7.38025e-06	-2.2607169508458192e-05
7.38050e-06	-1.1864641245604684e-05
7.38075e-06	-3.21217947475858e-06
7.38100e-06	3.334768311423387e-06
7.38125e-06	7.760776442324223e-06
7.38150e-06	1.0050383006791437e-05
7.38175e-06	1.0177402326986965e-05
7.38200e-06	8.099128067936367e-06
7.38225e-06	3.7925214098646167e-06
7.38250e-06	-2.7107002106525168e-06
7.38275e-06	-1.1341041702974975e-05
7.38300e-06	-2.2020474707633502e-05
7.38325e-06	-3.467095984346831e-05
7.38350e-06	-4.921448289859535e-05
7.38375e-06	-6.55797514191896e-05
7.38400e-06	-8.370582208065779e-05
7.38425e-06	-0.000103519439419346
7.38450e-06	-0.0001249130403396648
7.38475e-06	-0.0001477554189985788
7.38500e-06	-0.00017191003222619543
7.38525e-06	-0.0001975290763414106
7.38550e-06	-0.00022381242548484082
7.38575e-06	-0.0002511005562834145
7.38600e-06	-0.0002790939155371563
7.38625e-06	-0.0003078636660158387
7.38650e-06	-0.00033717834402295464
7.38675e-06	-0.00036649302203007055
7.38700e-06	-0.00039594554032574365
7.38725e-06	-0.00042549480490761766
7.38750e-06	-0.0004550440694895918
7.38775e-06	-0.00048382541642457696
7.38800e-06	-0.0005120677832010682
7.38825e-06	-0.0005403101499776551
7.38850e-06	-0.000566839257905573
7.38875e-06	-0.0005921658768303099
7.38900e-06	-0.0006174924957551328
7.38925e-06	-0.0006406298191707136
7.38950e-06	-0.000662230536616549
7.38975e-06	-0.0006814410096326972
7.39000e-06	-0.000698973836189211
7.39025e-06	-0.0007165066627457246
7.39050e-06	-0.0007317924206934281
7.39075e-06	-0.0007455010233304806
7.39100e-06	-0.0007592096259675332
7.39125e-06	-0.0007703583245038002
7.39150e-06	-0.0007797102971495697
7.39175e-06	-0.0007890622697953709
7.39200e-06	-0.0007960729241597974
7.39225e-06	-0.0008014402719751818
7.39250e-06	-0.0008068076197905845
7.39275e-06	-0.0008102270764380165
