Time(s)	Current(A)
1.08000e-05	-0.003546164623838256
1.08003e-05	-0.0035821656895842057
1.08005e-05	-0.003624797131554531
1.08007e-05	-0.0036675476316968157
1.08010e-05	-0.00371029813183939
1.08013e-05	-0.003755533256176472
1.08015e-05	-0.0038008129956007513
1.08018e-05	-0.003846994820804871
1.08020e-05	-0.003893192844288028
1.08023e-05	-0.003939212463382738
1.08025e-05	-0.003985228878963533
1.08028e-05	-0.00403000904362214
1.08030e-05	-0.004074767009574298
1.08033e-05	-0.0041172937770527175
1.08035e-05	-0.004159780480076032
1.08038e-05	-0.004197801507781237
1.08040e-05	-0.004235742347707382
1.08043e-05	-0.004273683187633784
1.08045e-05	-0.0043040468729699825
1.08048e-05	-0.0043342744993332145
1.08050e-05	-0.00436450212569665
1.08053e-05	-0.004382085302908675
1.08055e-05	-0.004399441430409125
1.08058e-05	-0.004416797557909692
1.08060e-05	-0.0044341536854102595
1.08063e-05	-0.004451509812910709
1.08065e-05	-0.004468865940411277
1.08068e-05	-0.004486222067911845
1.08070e-05	-0.004486303226594959
1.08073e-05	-0.004486074187764644
1.08075e-05	-0.004485845148934329
1.08077e-05	-0.004485616110104016
1.08080e-05	-0.004485387071273701
1.08083e-05	-0.004485158032443386
1.08085e-05	-0.004484928993613073
1.08088e-05	-0.004471074720510187
1.08090e-05	-0.004456975786254073
1.08092e-05	-0.0044428768519980556
1.08095e-05	-0.004428777917741942
1.08098e-05	-0.004414678983485828
1.08100e-05	-0.004400580049229811
1.08103e-05	-0.0043825514664761174
1.08105e-05	-0.004360305823818654
1.08108e-05	-0.004338060181161191
1.08110e-05	-0.004315814538503878
1.08113e-05	-0.004293568895846415
1.08115e-05	-0.004271323253188951
1.08118e-05	-0.004249077610531639
1.08120e-05	-0.004224574079119067
1.08123e-05	-0.004200030003987651
1.08125e-05	-0.004175485928856401
1.08128e-05	-0.004151350811476936
1.08130e-05	-0.004127223037536373
1.08133e-05	-0.004103095263595973
1.08135e-05	-0.004081058023130133
1.08138e-05	-0.004059058321272566
1.08140e-05	-0.004037058619415148
1.08143e-05	-0.00402118723536889
1.08145e-05	-0.004005425894297099
1.08148e-05	-0.003989664553225415
1.08150e-05	-0.003973903212153624
1.08153e-05	-0.003958141871081833
1.08155e-05	-0.003942380530010148
1.08158e-05	-0.003926619188938357
1.08160e-05	-0.003910857847866565
1.08162e-05	-0.0038950965067948815
1.08165e-05	-0.003884738912662692
1.08168e-05	-0.0038744783507676525
1.08170e-05	-0.0038642177888726825
1.08173e-05	-0.003853957226977643
1.08175e-05	-0.0038436966650826038
1.08177e-05	-0.003833436103187634
1.08180e-05	-0.003823175541292595
1.08183e-05	-0.0038129149793975554
1.08185e-05	-0.0038026544175025854
1.08188e-05	-0.003795734670593675
1.08190e-05	-0.00378887491293963
1.08193e-05	-0.003782015155285585
1.08195e-05	-0.0037751553976315866
1.08198e-05	-0.0037682956399775415
1.08200e-05	-0.003761435882323497
1.08203e-05	-0.003754576124669498
1.08205e-05	-0.003747716367015453
1.08208e-05	-0.0037408566093614084
1.08210e-05	-0.0037339968517074097
1.08213e-05	-0.003727137094053365
1.08215e-05	-0.003721388279872776
1.08218e-05	-0.0037168316626996433
1.08220e-05	-0.0037122750455264794
1.08223e-05	-0.0037077184283533155
1.08225e-05	-0.003703161811180183
1.08228e-05	-0.003698605194007019
1.08230e-05	-0.003694048576833855
1.08233e-05	-0.0036894919596607225
1.08235e-05	-0.0036849353424875586
1.08238e-05	-0.0036803787253143947
1.08240e-05	-0.0036758221081412616
1.08243e-05	-0.003671265490968098
1.08245e-05	-0.003669564781867772
1.08247e-05	-0.0036679153548044557
1.08250e-05	-0.003666265927741128
1.08253e-05	-0.0036646165006778007
1.08255e-05	-0.0036629670736144843
1.08258e-05	-0.0036613176465511567
1.08260e-05	-0.0036596682194878294
1.08262e-05	-0.003658018792424513
1.08265e-05	-0.0036588909631099344
1.08268e-05	-0.0036624691592252938
1.08270e-05	-0.0036660473553406284
1.08273e-05	-0.003669625551455988
1.08275e-05	-0.003673203747571347
1.08278e-05	-0.0036767819436867065
1.08280e-05	-0.003680360139802041
1.08283e-05	-0.0036839383359174005
1.08285e-05	-0.00368751653203276
1.08288e-05	-0.0036958242966535397
1.08290e-05	-0.003704216987644902
1.08293e-05	-0.0037126096786362635
1.08295e-05	-0.0037210023696275687
1.08298e-05	-0.003729395060618931
1.08300e-05	-0.0037377877516102925
1.08303e-05	-0.0037461804426015977
1.08305e-05	-0.0037545731335929594
1.08308e-05	-0.0037629658245843215
1.08310e-05	-0.0037732393349456366
1.08313e-05	-0.003783546618189836
1.08315e-05	-0.0037938539014340353
1.08318e-05	-0.0038041611846781646
1.08320e-05	-0.0038144684679223637
1.08323e-05	-0.003824775751166563
1.08325e-05	-0.0038350830344106926
1.08328e-05	-0.0038453903176548917
1.08330e-05	-0.003855697600899091
1.08332e-05	-0.0038646628104470142
1.08335e-05	-0.003873603921084467
1.08338e-05	-0.00388254503172192
1.08340e-05	-0.0038914861423593123
1.08343e-05	-0.0038994371434378605
1.08345e-05	-0.003906325619120861
1.08347e-05	-0.003913214094803815
1.08350e-05	-0.003920102570486815
1.08353e-05	-0.003926991046169815
1.08355e-05	-0.003935141415229088
1.08358e-05	-0.003943314443443198
1.08360e-05	-0.003951487471657309
1.08363e-05	-0.003959660499871419
1.08365e-05	-0.003967833528085473
1.08368e-05	-0.003976006556299584
1.08370e-05	-0.003984179584513694
1.08373e-05	-0.003992352612727749
1.08375e-05	-0.004000525640941859
1.08378e-05	-0.00401201754988229
1.08380e-05	-0.004023569054216026
1.08383e-05	-0.004035120558549841
1.08385e-05	-0.004046672062883654
1.08388e-05	-0.00405822356721739
1.08390e-05	-0.004069775071551204
1.08393e-05	-0.004081326575885018
1.08395e-05	-0.004092878080218754
1.08398e-05	-0.0041044295845525675
1.08400e-05	-0.004118326895809328
1.08403e-05	-0.004132266329485589
1.08405e-05	-0.004146205763161944
1.08408e-05	-0.004160145196838299
1.08410e-05	-0.00417408463051456
1.08413e-05	-0.004188024064190915
1.08415e-05	-0.0042019634978672695
1.08418e-05	-0.00421590293154353
1.08420e-05	-0.004229246920075024
1.08423e-05	-0.004241951913070567
1.08425e-05	-0.004254656906066023
1.08428e-05	-0.0042673618990615655
1.08430e-05	-0.004280066892057109
1.08432e-05	-0.004292771885052565
1.08435e-05	-0.004305476878048107
1.08438e-05	-0.00431818187104365
1.08440e-05	-0.004330886864039107
1.08443e-05	-0.004340802909397452
1.08445e-05	-0.004350668875091641
1.08448e-05	-0.004358302956142389
1.08450e-05	-0.0043658969604157775
1.08453e-05	-0.004368668556836891
1.08455e-05	-0.004371353559819517
1.08458e-05	-0.004367056241991216
1.08460e-05	-0.004362633546304787
1.08463e-05	-0.004358210850618357
1.08465e-05	-0.004345895666775498
1.08468e-05	-0.004333438761678701
1.08470e-05	-0.004320981856581903
1.08473e-05	-0.004299319590009091
1.08475e-05	-0.004277492027607399
1.08478e-05	-0.0042556644652057074
1.08480e-05	-0.0042232233665188985
1.08483e-05	-0.004190591686149521
1.08485e-05	-0.004157960005780144
1.08488e-05	-0.004125328325410988
1.08490e-05	-0.004087433580816038
1.08493e-05	-0.004043890835603325
1.08495e-05	-0.004000348090390906
1.08498e-05	-0.003956805345178192
1.08500e-05	-0.003913262599965478
1.08503e-05	-0.0038637848591916105
1.08505e-05	-0.0038142005468271515
1.08508e-05	-0.0037623801184331527
1.08510e-05	-0.003710519537281363
1.08513e-05	-0.0036572942769198774
1.08515e-05	-0.003603368176121543
1.08517e-05	-0.003549061228318466
1.08520e-05	-0.003494692766262146
1.08523e-05	-0.003440582233596041
1.08525e-05	-0.0033870490739636083
1.08528e-05	-0.003334394204397645
1.08530e-05	-0.003282847533674849
1.08533e-05	-0.003232607052528257
1.08535e-05	-0.003183950712042365
1.08538e-05	-0.0031372210366955415
1.08540e-05	-0.0030927648866482093
1.08543e-05	-0.00305092986573042
1.08545e-05	-0.003012063361368987
1.08548e-05	-0.0029765132143316927
1.08550e-05	-0.002944599369324241
1.08553e-05	-0.002916538344380587
1.08555e-05	-0.0028924329635263233
1.08558e-05	-0.0028723408136746413
1.08560e-05	-0.0028563173331608445
1.08563e-05	-0.002844418164401782
1.08565e-05	-0.002836698496474374
1.08568e-05	-0.002833214882582356
1.08570e-05	-0.0028360908755181496
1.08573e-05	-0.0028390797224907244
1.08575e-05	-0.0028521379723633936
1.08578e-05	-0.002865377033202441
1.08580e-05	-0.0028786160940413984
1.08583e-05	-0.002902956024861819
1.08585e-05	-0.002927495288159933
1.08588e-05	-0.002952034551457881
1.08590e-05	-0.002986444838075402
1.08593e-05	-0.0030210323734616864
1.08595e-05	-0.003055619908847736
1.08598e-05	-0.0030971015539856344
1.08600e-05	-0.003138706993022719
1.08602e-05	-0.003184723938009204
1.08605e-05	-0.0032308200980857627
1.08608e-05	-0.003280374787337442
1.08610e-05	-0.003329991579576355
1.08613e-05	-0.0033820289534080943
1.08615e-05	-0.003434109792349132
1.08618e-05	-0.003487415674756992
1.08620e-05	-0.0035407435546250783
1.08623e-05	-0.003594065144595218
1.08625e-05	-0.0036473866216209655
1.08628e-05	-0.003699468759956119
1.08630e-05	-0.0037515286441392277
1.08633e-05	-0.0038010631913326055
1.08635e-05	-0.0038505523923787967
1.08638e-05	-0.003896131449551793
1.08640e-05	-0.003941640294329735
1.08643e-05	-0.003980230784657107
1.08645e-05	-0.004018697045736022
1.08648e-05	-0.004057163306814935
1.08650e-05	-0.004086017230937857
1.08653e-05	-0.0041146985513865735
1.08655e-05	-0.00414337987183529
1.08658e-05	-0.004162557117820232
1.08660e-05	-0.004181563704143413
1.08663e-05	-0.004200570290466595
1.08665e-05	-0.004204417002009058
1.08668e-05	-0.004207991495660654
1.08670e-05	-0.0042115659893122515
1.08673e-05	-0.004215140482963824
1.08675e-05	-0.004218714976615421
1.08678e-05	-0.004222289470267018
1.08680e-05	-0.004207987996686904
1.08683e-05	-0.004193365533773477
1.08685e-05	-0.00417874307086005
1.08687e-05	-0.004164120607946722
1.08690e-05	-0.004149498145033295
1.08693e-05	-0.004134875682119868
1.08695e-05	-0.004107717383262275
1.08698e-05	-0.004080333984997628
1.08700e-05	-0.004052950586732981
1.08703e-05	-0.0040255671884683345
1.08705e-05	-0.0039981837902038735
1.08708e-05	-0.003963920798510971
1.08710e-05	-0.003929534273580375
1.08713e-05	-0.003895147748650011
1.08715e-05	-0.003860761223719415
1.08718e-05	-0.0038263746987888185
1.08720e-05	-0.0037900848506305877
1.08723e-05	-0.0037537608254988256
1.08725e-05	-0.0037175739201501684
1.08728e-05	-0.003681389476989522
1.08730e-05	-0.0036458626141062343
1.08733e-05	-0.0036111515224113355
1.08735e-05	-0.0035775198040279765
1.08738e-05	-0.0035452081878504455
1.08740e-05	-0.003514455125314631
1.08743e-05	-0.00348549903499983
1.08745e-05	-0.003458578106761163
1.08748e-05	-0.003435096216046345
1.08750e-05	-0.0034116754323553957
1.08753e-05	-0.003393047093727366
1.08755e-05	-0.003374504810512737
1.08758e-05	-0.0033609109618393017
1.08760e-05	-0.0033474059696001245
1.08763e-05	-0.0033403783146378338
1.08765e-05	-0.0033334669698116435
1.08768e-05	-0.0033265556249854064
1.08770e-05	-0.003327515725745169
1.08772e-05	-0.003328617169910078
1.08775e-05	-0.003329718614074995
1.08778e-05	-0.003341527866756627
1.08780e-05	-0.0033535293939194488
1.08783e-05	-0.003365530921082352
1.08785e-05	-0.003377532448245255
1.08788e-05	-0.0033895339754081585
1.08790e-05	-0.0034015355025709803
1.08793e-05	-0.003424940958450445
1.08795e-05	-0.0034485511886752727
1.08798e-05	-0.003472161418899941
1.08800e-05	-0.0034957716491247686
1.08803e-05	-0.0035193818793495964
1.08805e-05	-0.0035429921095742646
1.08808e-05	-0.0035721741604432347
1.08810e-05	-0.0036014562615627925
1.08813e-05	-0.003630738362682152
1.08815e-05	-0.003661752053745388
1.08818e-05	-0.003692796838057835
1.08820e-05	-0.003723841622370071
1.08823e-05	-0.00375498025958938
1.08825e-05	-0.00378612058207594
1.08828e-05	-0.0038172609045622886
1.08830e-05	-0.0038467908605998406
1.08833e-05	-0.003876291900134648
1.08835e-05	-0.003905792939669255
1.08838e-05	-0.003931810519159812
1.08840e-05	-0.003957765547991771
1.08843e-05	-0.003983720576823555
1.08845e-05	-0.004004386906676572
1.08848e-05	-0.0040249582701455365
1.08850e-05	-0.0040455296336143615
1.08853e-05	-0.004055938765088594
1.08855e-05	-0.004066165418711343
1.08857e-05	-0.004076392072334023
1.08860e-05	-0.004086618725956772
1.08863e-05	-0.0040968453795795215
1.08865e-05	-0.004107072033202202
1.08868e-05	-0.004117298686824951
1.08870e-05	-0.004113089484698977
1.08873e-05	-0.004108621065509004
1.08875e-05	-0.0041041526463190614
1.08878e-05	-0.004099684227129089
1.08880e-05	-0.004095215807939116
1.08883e-05	-0.004090747388749174
1.08885e-05	-0.004086278969559201
1.08888e-05	-0.004070505746093971
1.08890e-05	-0.0040545295282082665
1.08893e-05	-0.004038553310322455
1.08895e-05	-0.004022577092436643
1.08898e-05	-0.0040066008745509385
1.08900e-05	-0.003990624656665127
1.08903e-05	-0.003968009813262032
1.08905e-05	-0.003945275763554535
1.08908e-05	-0.003922541713846884
1.08910e-05	-0.0038998076641392327
1.08913e-05	-0.0038770736144317355
1.08915e-05	-0.0038543395647240844
1.08918e-05	-0.0038294590967493792
1.08920e-05	-0.0038045400866716346
1.08923e-05	-0.003779621076593721
1.08925e-05	-0.003754787113565034
1.08928e-05	-0.0037299546776816206
1.08930e-05	-0.0037058844631110283
1.08933e-05	-0.003681827935347423
1.08935e-05	-0.003659212023019788
1.08938e-05	-0.003636621979065237
1.08940e-05	-0.0036161141201737756
1.08942e-05	-0.003595643649983866
1.08945e-05	-0.0035778984211874074
1.08948e-05	-0.003560202128116495
1.08950e-05	-0.0035460062206342222
1.08953e-05	-0.0035318731677337887
1.08955e-05	-0.003522830053025443
1.08958e-05	-0.003513878335658668
1.08960e-05	-0.003504926618291954
1.08963e-05	-0.003502235903820115
1.08965e-05	-0.003499657614882495
1.08968e-05	-0.0034970793259448923
1.08970e-05	-0.0035041308713147042
1.08973e-05	-0.003511355334551541
1.08975e-05	-0.003518579797788329
1.08978e-05	-0.003525804261025166
1.08980e-05	-0.0035330287242620025
1.08983e-05	-0.0035402531874987905
1.08985e-05	-0.003558700659103144
1.08988e-05	-0.003577349656362802
1.08990e-05	-0.0035959986536223333
1.08993e-05	-0.003614647650881991
1.08995e-05	-0.003633296648141649
1.08998e-05	-0.0036519456454011806
1.09000e-05	-0.003676945419558824
1.09003e-05	-0.0037020592312752613
1.09005e-05	-0.003727173042991528
1.09008e-05	-0.003754958651026173
1.09010e-05	-0.0037827922351013456
1.09013e-05	-0.00381062581917633
1.09015e-05	-0.0038398759645913026
1.09018e-05	-0.003869151546452838
1.09020e-05	-0.0038984271283141756
1.09023e-05	-0.003927599174637529
1.09025e-05	-0.003956769361827704
1.09027e-05	-0.003985939549017681
1.09030e-05	-0.004013477793501828
1.09033e-05	-0.004040986734049533
1.09035e-05	-0.004068495674597051
1.09038e-05	-0.004093447028131626
1.09040e-05	-0.0041183524564219936
1.09043e-05	-0.004140303691020572
1.09045e-05	-0.0041622018787173575
1.09048e-05	-0.00418015046772511
1.09050e-05	-0.004198028135867429
1.09053e-05	-0.004208751940520332
1.09055e-05	-0.004219347287010899
1.09058e-05	-0.004229942633501464
1.09060e-05	-0.0042313448171099576
1.09063e-05	-0.004232581923929908
1.09065e-05	-0.004233819030749858
1.09068e-05	-0.0042257107972693666
1.09070e-05	-0.004217434754430437
1.09073e-05	-0.004209158711591509
1.09075e-05	-0.004188073264167562
1.09078e-05	-0.004166757805005564
1.09080e-05	-0.004145442345843567
1.09083e-05	-0.004124126886681715
1.09085e-05	-0.004102811427519718
1.09088e-05	-0.004067948762513439
1.09090e-05	-0.004032842837460319
1.09093e-05	-0.003997736912406961
1.09095e-05	-0.0039626309873536025
1.09098e-05	-0.003927525062300482
1.09100e-05	-0.003884049790936871
1.09103e-05	-0.0038404242356252314
1.09105e-05	-0.003796798680313887
1.09108e-05	-0.003749756185398211
1.09110e-05	-0.0037026523342959185
1.09112e-05	-0.003653671806262997
1.09115e-05	-0.0036046575797295246
1.09118e-05	-0.0035548342435503203
1.09120e-05	-0.003504834899771477
1.09123e-05	-0.003454955709684882
1.09125e-05	-0.0034054856284408547
1.09128e-05	-0.0033567053648194773
1.09130e-05	-0.0033088643733405095
1.09133e-05	-0.0032622040020833937
1.09135e-05	-0.003217010750863089
1.09138e-05	-0.0031736046401653483
1.09140e-05	-0.0031323078788509052
1.09143e-05	-0.003093442933254457
1.09145e-05	-0.0030587863839442375
1.09148e-05	-0.0030242046305189374
1.09150e-05	-0.002994683271823389
1.09153e-05	-0.002965252779973808
1.09155e-05	-0.002939522349392876
1.09158e-05	-0.0029138583588654847
1.09160e-05	-0.002892279028298041
1.09163e-05	-0.0028707730438203424
1.09165e-05	-0.002855061961712057
1.09168e-05	-0.0028394549356169714
1.09170e-05	-0.0028238479095217795
1.09173e-05	-0.0028159803555079066
1.09175e-05	-0.0028082517751224934
1.09178e-05	-0.002800523194737028
1.09180e-05	-0.002792794614351562
1.09183e-05	-0.002785066033966149
1.09185e-05	-0.0027815530153232028
1.09188e-05	-0.0027825638813122615
1.09190e-05	-0.0027835747473013137
1.09193e-05	-0.0027845856132903725
1.09195e-05	-0.0027855964792794317
1.09197e-05	-0.002786607345268484
1.09200e-05	-0.0027939694554652787
1.09203e-05	-0.0028014456116129054
1.09205e-05	-0.0028089217677604813
1.09208e-05	-0.002816397923908108
1.09210e-05	-0.0028238740800557347
1.09213e-05	-0.0028313502362033614
1.09215e-05	-0.0028403986387791026
1.09218e-05	-0.0028511342806574872
1.09220e-05	-0.0028618699225358723
1.09223e-05	-0.002872605564414184
1.09225e-05	-0.002883341206292569
1.09228e-05	-0.002894076848170954
1.09230e-05	-0.002904812490049266
1.09233e-05	-0.0029152904601589297
1.09235e-05	-0.002925763803392197
1.09238e-05	-0.0029362371466253936
1.09240e-05	-0.0029451609638809473
1.09243e-05	-0.0029540569571136744
1.09245e-05	-0.002962952950346341
1.09248e-05	-0.002970556884105336
1.09250e-05	-0.0029781376170320622
1.09253e-05	-0.002985718349958737
1.09255e-05	-0.0029948175786981826
1.09258e-05	-0.003003944074268127
1.09260e-05	-0.0030130705698380093
1.09263e-05	-0.003024751580989852
1.09265e-05	-0.003036478462234205
1.09268e-05	-0.0030482053434784783
1.09270e-05	-0.003059932224722831
1.09273e-05	-0.0030716591059671843
1.09275e-05	-0.0030833859872114577
1.09278e-05	-0.0030951128684558104
1.09280e-05	-0.003111510807893062
1.09282e-05	-0.0031279926230650436
1.09285e-05	-0.0031444744382371367
1.09288e-05	-0.0031609562534092297
1.09290e-05	-0.0031774380685812113
1.09293e-05	-0.003193919883753305
1.09295e-05	-0.003210401698925398
1.09297e-05	-0.003230453479574856
1.09300e-05	-0.003250569364216662
1.09303e-05	-0.0032706852488584683
1.09305e-05	-0.003290801133500275
1.09308e-05	-0.0033109170181419446
1.09310e-05	-0.0033310329027837512
1.09313e-05	-0.0033511487874255575
1.09315e-05	-0.003371212306472507
1.09318e-05	-0.003391219629946199
1.09320e-05	-0.0034112269534198906
1.09323e-05	-0.003431234276893447
1.09325e-05	-0.003451241600367139
1.09328e-05	-0.003471248923840831
1.09330e-05	-0.003491256247314387
1.09333e-05	-0.0035112635707880793
1.09335e-05	-0.0035262506862647975
1.09338e-05	-0.0035411476565069583
1.09340e-05	-0.00355604462674922
1.09343e-05	-0.003570941596991482
1.09345e-05	-0.003585838567233643
1.09348e-05	-0.003600735537475905
1.09350e-05	-0.0036156325077181667
1.09353e-05	-0.003626925610945944
1.09355e-05	-0.003634351263141954
1.09358e-05	-0.003641776915337964
1.09360e-05	-0.0036492025675339238
1.09363e-05	-0.0036566282197299338
1.09365e-05	-0.0036640538719259434
1.09367e-05	-0.003671479524121903
1.09370e-05	-0.003678905176317913
1.09373e-05	-0.0036790170186304324
1.09375e-05	-0.0036789975307055587
1.09378e-05	-0.0036789780427806847
1.09380e-05	-0.003678958554855811
1.09382e-05	-0.003678939066930937
1.09385e-05	-0.0036789195790060633
1.09388e-05	-0.0036789000910811896
1.09390e-05	-0.0036788806031563155
1.09393e-05	-0.003678861115231442
1.09395e-05	-0.0036788416273065678
1.09398e-05	-0.0036735162556400984
1.09400e-05	-0.0036680956090099004
1.09403e-05	-0.0036626749623796654
1.09405e-05	-0.0036572543157494305
1.09408e-05	-0.0036518336691192324
1.09410e-05	-0.0036464130224889975
1.09413e-05	-0.0036409923758587625
1.09415e-05	-0.003635571729228564
1.09418e-05	-0.003630151082598329
1.09420e-05	-0.0036247304359680946
1.09423e-05	-0.0036180193538017207
1.09425e-05	-0.0036112850999630627
1.09428e-05	-0.0036045508461244043
1.09430e-05	-0.0035978165922857914
1.09433e-05	-0.003591082338447133
1.09435e-05	-0.003585147793715102
1.09438e-05	-0.0035792276089389547
1.09440e-05	-0.003573307424162768
1.09443e-05	-0.003567387239386581
1.09445e-05	-0.0035614670546104342
1.09448e-05	-0.003555462871101435
1.09450e-05	-0.003549457179271366
