Time(s)	Current(A)
1.00000e-06	0.013468837575344563
1.00025e-06	0.013471308921971825
1.00050e-06	0.013473780268599089
1.00075e-06	0.013476251615226354
1.00100e-06	0.013478722961853618
1.00125e-06	0.01348026632295231
1.00150e-06	0.013476410065416793
1.00175e-06	0.013472553807881276
1.00200e-06	0.013468697550345755
1.00225e-06	0.013464841292810238
1.00250e-06	0.013460985035274717
1.00275e-06	0.0134571287777392
1.00300e-06	0.013453272520203683
1.00325e-06	0.013447267341547782
1.00350e-06	0.013428758353115196
1.00375e-06	0.013410249364682594
1.00400e-06	0.013391740376250008
1.00425e-06	0.013373231387817406
1.00450e-06	0.01335472239938482
1.00475e-06	0.013336213410952234
1.00500e-06	0.013317704422519632
1.00525e-06	0.013296771686226644
1.00550e-06	0.013261736020838156
1.00575e-06	0.013226700355449695
1.00600e-06	0.013191664690061236
1.00625e-06	0.013156629024672748
1.00650e-06	0.013121593359284287
1.00675e-06	0.013086557693895799
1.00700e-06	0.01305152202850734
1.00725e-06	0.01301648636311888
1.00750e-06	0.012981450697730391
1.00775e-06	0.01294641503234193
1.00800e-06	0.012911379366953442
1.00825e-06	0.012876343701564983
1.00850e-06	0.012841308036176523
1.00875e-06	0.01280707019057404
1.00900e-06	0.012773268286142942
1.00925e-06	0.012739466381711816
1.00950e-06	0.01270566447728072
1.00975e-06	0.012671862572849593
1.01000e-06	0.012638060668418497
1.01025e-06	0.0126042587639874
1.01050e-06	0.012570456859556274
1.01075e-06	0.012536654955125178
1.01100e-06	0.012502853050694053
1.01125e-06	0.012469051146262955
1.01150e-06	0.012435249241831859
1.01175e-06	0.012401447337400734
1.01200e-06	0.01237060178386122
1.01225e-06	0.012356958187539863
1.01250e-06	0.01234331459121852
1.01275e-06	0.012329670994897176
1.01300e-06	0.012316027398575818
1.01325e-06	0.012302383802254475
1.01350e-06	0.012288740205933119
1.01375e-06	0.012275096609611775
1.01400e-06	0.01226145301329042
1.01425e-06	0.012247809416969074
1.01450e-06	0.012236535865557011
1.01475e-06	0.012239052764814911
1.01500e-06	0.01224156966407281
1.01525e-06	0.01224408656333071
1.01550e-06	0.012246603462588608
1.01575e-06	0.012249120361846506
1.01600e-06	0.012251637261104406
1.01625e-06	0.012254154160362305
1.01650e-06	0.012256671059620207
1.01675e-06	0.012259187958878105
1.01700e-06	0.012262631790154837
1.01725e-06	0.012271887156786352
1.01750e-06	0.012283574989005614
1.01775e-06	0.012295262821224883
1.01800e-06	0.012306950653444143
1.01825e-06	0.012318638485663414
1.01850e-06	0.012330326317882674
1.01875e-06	0.012342014150101936
1.01900e-06	0.012353701982321205
1.01925e-06	0.012365389814540467
1.01950e-06	0.012377077646759736
1.01975e-06	0.012388765478978997
1.02000e-06	0.01239861347840688
1.02025e-06	0.01240745616450939
1.02050e-06	0.012416298850611893
1.02075e-06	0.012425141536714404
1.02100e-06	0.012433984222816908
1.02125e-06	0.01244282690891941
1.02150e-06	0.012451669595021923
1.02175e-06	0.012460512281124426
1.02200e-06	0.012469354967226936
1.02225e-06	0.01247819765332944
1.02250e-06	0.012485612047281361
1.02275e-06	0.012484715715826334
1.02300e-06	0.012483819384371308
1.02325e-06	0.01248292305291628
1.02350e-06	0.012482026721461254
1.02375e-06	0.012481130390006227
1.02400e-06	0.0124802340585512
1.02425e-06	0.012479337727096175
1.02450e-06	0.012478441395641148
1.02475e-06	0.012477545064186121
1.02500e-06	0.012476648732731094
1.02525e-06	0.012475752401276068
1.02550e-06	0.01247485606982104
1.02575e-06	0.012473959738366014
1.02600e-06	0.012473063406910987
1.02625e-06	0.01247216707545596
1.02650e-06	0.012471270744000935
1.02675e-06	0.012470374412545907
1.02700e-06	0.012469478081090881
1.02725e-06	0.012468581749635855
1.02750e-06	0.012467685418180828
1.02775e-06	0.012466129337130462
1.02800e-06	0.01246073440719918
1.02825e-06	0.012455339477267902
1.02850e-06	0.012449944547336625
1.02875e-06	0.012444549617405343
1.02900e-06	0.012439154687474066
1.02925e-06	0.012433759757542785
1.02950e-06	0.012428364827611506
1.02975e-06	0.01242296989768023
1.03000e-06	0.012417574967748948
1.03025e-06	0.01241218003781767
1.03050e-06	0.012406785107886387
1.03075e-06	0.01240139017795511
1.03100e-06	0.012395995248023829
1.03125e-06	0.012390600318092552
1.03150e-06	0.012385205388161274
1.03175e-06	0.012379810458229992
1.03200e-06	0.012374415528298715
1.03225e-06	0.012369020598367433
1.03250e-06	0.012363625668436155
1.03275e-06	0.012358230738504878
1.03300e-06	0.012352849434522731
1.03325e-06	0.012347547415105445
1.03350e-06	0.012342245395688154
1.03375e-06	0.012336943376270868
1.03400e-06	0.012331641356853582
1.03425e-06	0.012326339337436293
1.03450e-06	0.012321037318019007
1.03475e-06	0.012315735298601716
1.03500e-06	0.01231043327918443
1.03525e-06	0.012305131259767139
1.03550e-06	0.012299829240349853
1.03575e-06	0.012294527220932567
1.03600e-06	0.012289225201515278
1.03625e-06	0.012283923182097992
1.03650e-06	0.0122786211626807
1.03675e-06	0.012273319143263415
1.03700e-06	0.012268017123846129
1.03725e-06	0.01226271510442884
1.03750e-06	0.012257413085011553
1.03775e-06	0.012252176655001572
1.03800e-06	0.012247321866488014
1.03825e-06	0.012242467077974453
1.03850e-06	0.012237612289460888
1.03875e-06	0.012232757500947329
1.03900e-06	0.012227902712433764
1.03925e-06	0.012223047923920205
1.03950e-06	0.01221819313540664
1.03975e-06	0.012213338346893081
1.04000e-06	0.01220848355837952
1.04025e-06	0.012203628769865955
1.04050e-06	0.012198773981352396
1.04075e-06	0.012193919192838831
1.04100e-06	0.012189064404325272
1.04125e-06	0.012184209615811712
1.04150e-06	0.012179354827298148
1.04175e-06	0.012174500038784588
1.04200e-06	0.012169645250271022
1.04225e-06	0.012164790461757464
1.04250e-06	0.012160983168740619
1.04275e-06	0.012163270880469644
1.04300e-06	0.012165558592198665
1.04325e-06	0.012167846303927688
1.04350e-06	0.01217013401565671
1.04375e-06	0.012172421727385732
1.04400e-06	0.012174709439114756
1.04425e-06	0.012176997150843777
1.04450e-06	0.0121792848625728
1.04475e-06	0.012181572574301823
1.04500e-06	0.012183860286030846
1.04525e-06	0.012186147997759867
1.04550e-06	0.012188435709488889
1.04575e-06	0.012190723421217912
1.04600e-06	0.012193011132946935
1.04625e-06	0.012195298844675958
1.04650e-06	0.01219758655640498
1.04675e-06	0.012200572665841318
1.04700e-06	0.012207622503812758
1.04725e-06	0.012214672341784192
1.04750e-06	0.012221722179755635
1.04775e-06	0.012228772017727069
1.04800e-06	0.012235821855698504
1.04825e-06	0.012242871693669945
1.04850e-06	0.012249921531641379
1.04875e-06	0.01225697136961282
1.04900e-06	0.012264021207584255
1.04925e-06	0.012271071045555696
1.04950e-06	0.012278120883527132
1.04975e-06	0.012285170721498566
1.05000e-06	0.012292220559470006
1.05025e-06	0.012299270397441442
1.05050e-06	0.012306320235412883
1.05075e-06	0.012313370073384317
1.05100e-06	0.01231948992019848
1.05125e-06	0.012320198478339397
1.05150e-06	0.012320907036480313
1.05175e-06	0.012321615594621232
1.05200e-06	0.012322324152762148
1.05225e-06	0.012323032710903065
1.05250e-06	0.012323741269043982
1.05275e-06	0.0123244498271849
1.05300e-06	0.012325158385325817
1.05325e-06	0.012325866943466735
1.05350e-06	0.012326575501607652
1.05375e-06	0.01232728405974857
1.05400e-06	0.012327992617889486
1.05425e-06	0.012328701176030403
1.05450e-06	0.01232940973417132
1.05475e-06	0.012330118292312238
1.05500e-06	0.012330826850453155
1.05525e-06	0.012331535408594073
1.05550e-06	0.01233224396673499
1.05575e-06	0.012332952524875908
1.05600e-06	0.012333661083016825
1.05625e-06	0.012334369641157741
1.05650e-06	0.012335078199298658
1.05675e-06	0.012335786757439576
1.05700e-06	0.012333751457266626
1.05725e-06	0.012330216870126844
1.05750e-06	0.012326682282987065
1.05775e-06	0.012323147695847282
1.05800e-06	0.012319613108707505
1.05825e-06	0.012316078521567726
1.05850e-06	0.012312543934427943
1.05875e-06	0.012309009347288164
1.05900e-06	0.012305474760148382
1.05925e-06	0.012301940173008603
1.05950e-06	0.012298405585868824
1.05975e-06	0.012294870998729043
1.06000e-06	0.012291336411589264
1.06025e-06	0.012287801824449482
1.06050e-06	0.012284267237309703
1.06075e-06	0.012280732650169924
1.06100e-06	0.012277198063030143
1.06125e-06	0.012273663475890364
1.06150e-06	0.012270128888750582
1.06175e-06	0.012266594301610803
1.06200e-06	0.01226305971447102
1.06225e-06	0.012259525127331241
1.06250e-06	0.012255990540191462
1.06275e-06	0.012251997897468751
1.06300e-06	0.012245339991783155
1.06325e-06	0.012238682086097553
1.06350e-06	0.012232024180411957
1.06375e-06	0.012225366274726361
1.06400e-06	0.01221870836904076
1.06425e-06	0.012212050463355165
1.06450e-06	0.012205392557669562
1.06475e-06	0.012198734651983968
1.06500e-06	0.012192076746298372
1.06525e-06	0.01218541884061277
1.06550e-06	0.012178760934927174
1.06575e-06	0.012172103029241573
1.06600e-06	0.012165445123555977
1.06625e-06	0.012158787217870375
1.06650e-06	0.012152129312184779
1.06675e-06	0.012145471406499183
1.06700e-06	0.012138813500813582
1.06725e-06	0.012132155595127985
1.06750e-06	0.012125497689442384
1.06775e-06	0.012118373954212096
1.06800e-06	0.012110995682455068
1.06825e-06	0.012103617410698033
1.06850e-06	0.012096239138941004
1.06875e-06	0.01208886086718397
1.06900e-06	0.012081482595426943
1.06925e-06	0.012074104323669914
1.06950e-06	0.01206672605191288
1.06975e-06	0.012059347780155851
1.07000e-06	0.012051969508398817
1.07025e-06	0.01204459123664179
1.07050e-06	0.012037212964884754
1.07075e-06	0.012029834693127727
1.07100e-06	0.012022456421370698
1.07125e-06	0.012015078149613664
1.07150e-06	0.012007699877856635
1.07175e-06	0.0120003216060996
1.07200e-06	0.011992943334342573
1.07225e-06	0.011985565062585544
1.07250e-06	0.01197958723902519
1.07275e-06	0.011981758126775738
1.07300e-06	0.011983929014526287
1.07325e-06	0.011986099902276837
1.07350e-06	0.011988270790027384
1.07375e-06	0.011990441677777934
1.07400e-06	0.011992612565528483
1.07425e-06	0.011994783453279033
1.07450e-06	0.01199695434102958
1.07475e-06	0.011999125228780131
1.07500e-06	0.012001296116530679
1.07525e-06	0.012003467004281227
1.07550e-06	0.012005637892031778
1.07575e-06	0.012007808779782326
1.07600e-06	0.012009979667532875
1.07625e-06	0.012012150555283424
1.07650e-06	0.012014321443033972
1.07675e-06	0.012016492330784521
1.07700e-06	0.01201866321853507
1.07725e-06	0.012024033171825594
1.07750e-06	0.012031151144408978
1.07775e-06	0.012038269116992363
1.07800e-06	0.012045387089575752
1.07825e-06	0.012052505062159137
1.07850e-06	0.012059623034742527
1.07875e-06	0.012066741007325911
1.07900e-06	0.012073858979909301
1.07925e-06	0.012080976952492686
1.07950e-06	0.01208809492507607
1.07975e-06	0.012095212897659462
1.08000e-06	0.012102330870242844
1.08025e-06	0.012109448842826236
1.08050e-06	0.01211656681540962
1.08075e-06	0.012123684787993003
1.08100e-06	0.012130802760576395
1.08125e-06	0.01213792073315978
1.08150e-06	0.012145038705743169
1.08175e-06	0.0121524223279958
1.08200e-06	0.01216135167144644
1.08225e-06	0.012170281014897083
1.08250e-06	0.01217921035834772
1.08275e-06	0.012188139701798367
1.08300e-06	0.012197069045249004
1.08325e-06	0.012205998388699641
1.08350e-06	0.012214927732150285
1.08375e-06	0.012223857075600923
1.08400e-06	0.012232786419051568
1.08425e-06	0.012241715762502206
1.08450e-06	0.012256673186718988
1.08475e-06	0.012274924448259809
1.08500e-06	0.01229317570980063
1.08525e-06	0.012311426971341466
1.08550e-06	0.012329678232882287
1.08575e-06	0.012347929494423123
1.08600e-06	0.012366180755963943
1.08625e-06	0.012384432017504764
1.08650e-06	0.0124026832790456
1.08675e-06	0.012420934540586423
1.08700e-06	0.01243984973092551
1.08725e-06	0.012462628087442314
1.08750e-06	0.012485406443959119
1.08775e-06	0.012508184800475941
1.08800e-06	0.012530963156992744
1.08825e-06	0.012553741513509567
1.08850e-06	0.01257651987002637
1.08875e-06	0.012599298226543194
1.08900e-06	0.012622076583059997
1.08925e-06	0.0126448549395768
1.08950e-06	0.012667633296093623
1.08975e-06	0.012690411652610426
1.09000e-06	0.012713190009127249
1.09025e-06	0.012735968365644052
1.09050e-06	0.012750161371129545
1.09075e-06	0.01275966320694378
1.09100e-06	0.01276916504275801
1.09125e-06	0.012778666878572247
1.09150e-06	0.012788168714386474
1.09175e-06	0.012797670550200703
1.09200e-06	0.012807172386014939
1.09225e-06	0.012816674221829168
1.09250e-06	0.012826176057643406
1.09275e-06	0.012835677893457633
1.09300e-06	0.01284517972927187
1.09325e-06	0.012854681565086097
1.09350e-06	0.012864183400900326
1.09375e-06	0.012870034666801212
1.09400e-06	0.012854644561255691
1.09425e-06	0.012839254455710157
1.09450e-06	0.012823864350164636
1.09475e-06	0.012808474244619115
1.09500e-06	0.012793084139073582
1.09525e-06	0.012777694033528061
1.09550e-06	0.012762303927982527
1.09575e-06	0.012746913822437006
1.09600e-06	0.012731523716891485
1.09625e-06	0.012716133611345952
1.09650e-06	0.012700743505800432
1.09675e-06	0.012685353400254897
1.09700e-06	0.01266814497421004
1.09725e-06	0.012640356386149234
1.09750e-06	0.012612567798088451
1.09775e-06	0.012584779210027668
1.09800e-06	0.012556990621966862
1.09825e-06	0.01252920203390608
1.09850e-06	0.012501413445845273
1.09875e-06	0.012473624857784492
1.09900e-06	0.012445836269723709
1.09925e-06	0.012418047681662903
1.09950e-06	0.01239025909360212
1.09975e-06	0.012362470505541314
1.10000e-06	0.012334681917480533
1.10025e-06	0.012307848880043762
1.10050e-06	0.012286575852748092
1.10075e-06	0.012265302825452441
1.10100e-06	0.012244029798156773
1.10125e-06	0.012222756770861121
1.10150e-06	0.012201483743565453
1.10175e-06	0.012180210716269802
1.10200e-06	0.012158937688974152
1.10225e-06	0.012137664661678482
1.10250e-06	0.012116391634382832
1.10275e-06	0.012095118607087162
1.10300e-06	0.012073845579791511
1.10325e-06	0.012053556203474088
1.10350e-06	0.012033804309388768
1.10375e-06	0.012014052415303464
1.10400e-06	0.011994300521218143
1.10425e-06	0.011974548627132839
1.10450e-06	0.011954796733047534
1.10475e-06	0.011935044838962213
1.10500e-06	0.011915292944876909
1.10525e-06	0.011895541050791587
1.10550e-06	0.011875789156706283
1.10575e-06	0.011856037262620961
1.10600e-06	0.011836008177062133
1.10625e-06	0.011814366212640579
1.10650e-06	0.011792724248219009
1.10675e-06	0.011771082283797455
1.10700e-06	0.011749440319375885
1.10725e-06	0.011727798354954331
1.10750e-06	0.011706156390532779
1.10775e-06	0.011684514426111207
1.10800e-06	0.011662872461689655
1.10825e-06	0.011641230497268083
1.10850e-06	0.011619588532846531
1.10875e-06	0.011597946568424979
1.10900e-06	0.011576304604003407
1.10925e-06	0.011554662639581855
1.10950e-06	0.011533020675160283
1.10975e-06	0.011511378710738731
1.11000e-06	0.01148973674631716
1.11025e-06	0.011470099009613228
1.11050e-06	0.011462123163084221
1.11075e-06	0.011454147316555207
1.11100e-06	0.0114461714700262
1.11125e-06	0.011438195623497186
1.11150e-06	0.01143021977696818
1.11175e-06	0.011422243930439172
1.11200e-06	0.011414268083910158
1.11225e-06	0.011406292237381151
1.11250e-06	0.011398316390852137
1.11275e-06	0.01139034054432313
1.11300e-06	0.011382364697794124
1.11325e-06	0.011374388851265111
1.11350e-06	0.011366413004736104
1.11375e-06	0.01135843715820709
1.11400e-06	0.011350461311678084
1.11425e-06	0.01134248546514907
1.11450e-06	0.011338082579995112
1.11475e-06	0.011354469489726614
1.11500e-06	0.011370856399458132
1.11525e-06	0.011387243309189634
1.11550e-06	0.01140363021892115
1.11575e-06	0.011420017128652654
1.11600e-06	0.011436404038384156
1.11625e-06	0.011452790948115672
1.11650e-06	0.011469177857847176
1.11675e-06	0.011485564767578692
1.11700e-06	0.011501951677310194
1.11725e-06	0.011518338587041698
1.11750e-06	0.011534725496773214
1.11775e-06	0.011551112406504718
1.11800e-06	0.011567499316236234
1.11825e-06	0.011586661956924335
1.11850e-06	0.011607341300287687
1.11875e-06	0.011628020643651022
1.11900e-06	0.011648699987014358
1.11925e-06	0.01166937933037771
1.11950e-06	0.011690058673741045
1.11975e-06	0.011710738017104398
1.12000e-06	0.011731417360467731
1.12025e-06	0.011752096703831066
1.12050e-06	0.011772776047194419
1.12075e-06	0.011793455390557754
1.12100e-06	0.011814134733921107
1.12125e-06	0.011834814077284442
1.12150e-06	0.011855493420647777
1.12175e-06	0.011875193774666618
1.12200e-06	0.011889197736944985
1.12225e-06	0.011903201699223362
1.12250e-06	0.011917205661501729
1.12275e-06	0.011931209623780095
1.12300e-06	0.011945213586058474
1.12325e-06	0.01195921754833684
1.12350e-06	0.01197322151061522
1.12375e-06	0.011987225472893586
1.12400e-06	0.012001229435171965
1.12425e-06	0.01201523339745033
1.12450e-06	0.012029237359728696
1.12475e-06	0.012043241322007075
1.12500e-06	0.012058477190483306
1.12525e-06	0.012074386191714512
1.12550e-06	0.012090295192945704
1.12575e-06	0.012106204194176897
1.12600e-06	0.012122113195408103
1.12625e-06	0.012138022196639297
1.12650e-06	0.012153931197870503
1.12675e-06	0.012169840199101696
1.12700e-06	0.01218574920033289
1.12725e-06	0.012201658201564096
1.12750e-06	0.01221756720279529
1.12775e-06	0.012233476204026495
1.12800e-06	0.012249101438460244
1.12825e-06	0.012263075534554115
1.12850e-06	0.012277049630647975
1.12875e-06	0.012291023726741833
1.12900e-06	0.012304997822835704
1.12925e-06	0.012318971918929562
1.12950e-06	0.012332946015023433
1.12975e-06	0.012346920111117293
1.13000e-06	0.012360894207211152
1.13025e-06	0.012374868303305022
1.13050e-06	0.012388842399398881
1.13075e-06	0.012402816495492753
1.13100e-06	0.012416790591586612
1.13125e-06	0.01243076468768047
1.13150e-06	0.012442977758301773
1.13175e-06	0.01244494404634895
1.13200e-06	0.012446910334396129
1.13225e-06	0.012448876622443306
1.13250e-06	0.012450842910490485
1.13275e-06	0.012452809198537662
1.13300e-06	0.01245477548658484
1.13325e-06	0.01245674177463202
1.13350e-06	0.012458708062679198
1.13375e-06	0.012460674350726376
1.13400e-06	0.012462640638773554
1.13425e-06	0.012464606926820731
1.13450e-06	0.01246657321486791
1.13475e-06	0.012468539502915087
1.13500e-06	0.012468759800312396
1.13525e-06	0.012458820797436296
1.13550e-06	0.012448881794560199
1.13575e-06	0.012438942791684091
1.13600e-06	0.012429003788807994
1.13625e-06	0.012419064785931886
1.13650e-06	0.012409125783055789
1.13675e-06	0.01239918678017968
1.13700e-06	0.012389247777303583
1.13725e-06	0.012379308774427484
1.13750e-06	0.012369369771551378
1.13775e-06	0.012359430768675279
1.13800e-06	0.012349491765799173
1.13825e-06	0.012339188460026962
1.13850e-06	0.01232676540492377
1.13875e-06	0.012314342349820567
1.13900e-06	0.012301919294717375
1.13925e-06	0.012289496239614173
1.13950e-06	0.01227707318451098
1.13975e-06	0.012264650129407789
1.14000e-06	0.012252227074304586
1.14025e-06	0.012239804019201394
1.14050e-06	0.012227380964098191
1.14075e-06	0.012214957908995
1.14100e-06	0.012202534853891797
1.14125e-06	0.012190111798788605
1.14150e-06	0.012177619143755317
1.14175e-06	0.012164721511416522
1.14200e-06	0.012151823879077739
1.14225e-06	0.012138926246738943
1.14250e-06	0.01212602861440016
1.14275e-06	0.012113130982061375
1.14300e-06	0.012100233349722581
1.14325e-06	0.012087335717383796
1.14350e-06	0.012074438085045002
1.14375e-06	0.012061540452706217
1.14400e-06	0.012048642820367434
1.14425e-06	0.01203452124017667
1.14450e-06	0.012013277941581068
1.14475e-06	0.011992034642985448
1.14500e-06	0.011970791344389846
1.14525e-06	0.011949548045794227
1.14550e-06	0.011928304747198625
1.14575e-06	0.011907061448603023
1.14600e-06	0.011885818150007402
1.14625e-06	0.011864574851411801
1.14650e-06	0.01184333155281618
1.14675e-06	0.011822088254220578
1.14700e-06	0.011800219532245634
1.14725e-06	0.011774711693469898
1.14750e-06	0.011749203854694185
1.14775e-06	0.011723696015918448
1.14800e-06	0.011698188177142734
1.14825e-06	0.01167268033836702
1.14850e-06	0.011647172499591284
1.14875e-06	0.01162166466081557
1.14900e-06	0.011596156822039834
1.14925e-06	0.011570648983264119
1.14950e-06	0.011545141144488383
1.14975e-06	0.01151963330571267
1.15000e-06	0.011495274189734507
1.15025e-06	0.011477599084252154
1.15050e-06	0.011459923978769814
1.15075e-06	0.011442248873287458
1.15100e-06	0.011424573767805118
1.15125e-06	0.011406898662322779
1.15150e-06	0.011389223556840423
1.15175e-06	0.011371548451358083
