Time(s)	Current(A)
1.05000e-05	0.003333716063683407
1.05002e-05	0.003308386348973617
1.05005e-05	0.003283056634263655
1.05008e-05	0.003257726919553693
1.05010e-05	0.003232397204843903
1.05013e-05	0.003207067490133941
1.05015e-05	0.003181737775423979
1.05017e-05	0.003167462643868445
1.05020e-05	0.0031552135961729583
1.05023e-05	0.0031429645484774716
1.05025e-05	0.003130715500782068
1.05028e-05	0.003118466453086581
1.05030e-05	0.0031062174053910945
1.05033e-05	0.003093968357695608
1.05035e-05	0.0030817193100002045
1.05038e-05	0.003069470262304718
1.05040e-05	0.003057221214609231
1.05043e-05	0.0030449721669138273
1.05045e-05	0.0030327231192183407
1.05048e-05	0.003020474071522854
1.05050e-05	0.0030102809582558225
1.05053e-05	0.003003989266880007
1.05055e-05	0.0029976975755041917
1.05058e-05	0.002991405884128419
1.05060e-05	0.0029851141927526035
1.05063e-05	0.002978822501376788
1.05065e-05	0.0029725308100010156
1.05068e-05	0.0029662391186252002
1.05070e-05	0.002959947427249385
1.05073e-05	0.002953655735873612
1.05075e-05	0.0029473640444977966
1.05078e-05	0.0029410723531219816
1.05080e-05	0.00293710651802866
1.05083e-05	0.002933566965845403
1.05085e-05	0.002930027413662146
1.05087e-05	0.002926487861478913
1.05090e-05	0.0029229483092956562
1.05093e-05	0.002919408757112399
1.05095e-05	0.0029158692049291663
1.05098e-05	0.002912329652745909
1.05100e-05	0.002908790100562652
1.05102e-05	0.002905250548379419
1.05105e-05	0.002901710996196162
1.05108e-05	0.002903555046649257
1.05110e-05	0.0029156152328376557
1.05113e-05	0.002927675419026136
1.05115e-05	0.002939735605214617
1.05118e-05	0.0029517957914030972
1.05120e-05	0.002963855977591496
1.05123e-05	0.0029759161637799765
1.05125e-05	0.0029879763499684573
1.05128e-05	0.003000036536156856
1.05130e-05	0.0030120967223453365
1.05133e-05	0.0030504335680200524
1.05135e-05	0.0030935863995146294
1.05138e-05	0.0031367392310094992
1.05140e-05	0.003179892062504369
1.05143e-05	0.0032230448939989465
1.05145e-05	0.0032661977254938163
1.05148e-05	0.003309350556988686
1.05150e-05	0.0033525033884832635
1.05153e-05	0.0033956562199781333
1.05155e-05	0.0034462003707352185
1.05158e-05	0.003510770579125335
1.05160e-05	0.0035753407875158886
1.05163e-05	0.0036399109959064425
1.05165e-05	0.0037044812042965588
1.05168e-05	0.0037690514126871126
1.05170e-05	0.0038336216210776665
1.05172e-05	0.0038981918294677827
1.05175e-05	0.0039651976480112785
1.05178e-05	0.0040326498651530665
1.05180e-05	0.0041001020822943966
1.05183e-05	0.004167554299436184
1.05185e-05	0.004235006516577971
1.05187e-05	0.004302458733719301
1.05190e-05	0.004369910950861088
1.05193e-05	0.004429260738226481
1.05195e-05	0.00447323503672414
1.05198e-05	0.004517209335222097
1.05200e-05	0.004561183633720054
1.05203e-05	0.00460515793221801
1.05205e-05	0.004649132230715669
1.05208e-05	0.004693106529213626
1.05210e-05	0.004737080827711583
1.05213e-05	0.004781055126209241
1.05215e-05	0.004825029424707198
1.05218e-05	0.004869003723205155
1.05220e-05	0.004912978021702813
1.05223e-05	0.004922688655621944
1.05225e-05	0.004926119445525402
1.05228e-05	0.004929550235428837
1.05230e-05	0.004932981025332295
1.05233e-05	0.004936411815235753
1.05235e-05	0.004939842605139188
1.05238e-05	0.004943273395042646
1.05240e-05	0.004946704184946104
1.05243e-05	0.004950134974849539
1.05245e-05	0.004953565764752997
1.05248e-05	0.004956996554656455
1.05250e-05	0.004951132867225864
1.05253e-05	0.004927631614677301
1.05255e-05	0.004904130362128739
1.05257e-05	0.004880629109580336
1.05260e-05	0.004857127857031774
1.05263e-05	0.0048336266044832115
1.05265e-05	0.004810125351934809
1.05268e-05	0.004786624099386246
1.05270e-05	0.004763122846837685
1.05272e-05	0.0047368797217019545
1.05275e-05	0.004705433511489777
1.05278e-05	0.004673987301277599
1.05280e-05	0.004642541091065634
1.05283e-05	0.004611094880853457
1.05285e-05	0.004579648670641279
1.05288e-05	0.004548202460429101
1.05290e-05	0.004516756250217136
1.05293e-05	0.004485310040004959
1.05295e-05	0.0044590105400711955
1.05298e-05	0.004442477639638547
1.05300e-05	0.004425944739205787
1.05303e-05	0.004409411838773026
1.05305e-05	0.004392878938340378
1.05308e-05	0.004376346037907617
1.05310e-05	0.004359813137474857
1.05313e-05	0.004343280237042208
1.05315e-05	0.0043267473366094475
1.05318e-05	0.0043102144361766865
1.05320e-05	0.004293681535744038
1.05323e-05	0.004277148635311278
1.05325e-05	0.004260615734878517
1.05328e-05	0.004244082834445869
1.05330e-05	0.004227549934013108
1.05333e-05	0.004219610887749422
1.05335e-05	0.004227979876581211
1.05338e-05	0.004236348865413056
1.05340e-05	0.004244717854244902
1.05342e-05	0.004253086843076691
1.05345e-05	0.004261455831908536
1.05348e-05	0.004269824820740382
1.05350e-05	0.00427819380957217
1.05353e-05	0.004286562798404016
1.05355e-05	0.004294931787235862
1.05357e-05	0.004303300776067651
1.05360e-05	0.004311669764899496
1.05363e-05	0.004320038753731341
1.05365e-05	0.00432840774256313
1.05368e-05	0.0043367767313949755
1.05370e-05	0.0043483537387251974
1.05373e-05	0.004366018407916334
1.05375e-05	0.004383683077107349
1.05378e-05	0.004401347746298486
1.05380e-05	0.004419012415489622
1.05383e-05	0.004436677084680638
1.05385e-05	0.004454341753871775
1.05388e-05	0.004472006423062911
1.05390e-05	0.0044896710922539265
1.05393e-05	0.0045033579628196
1.05395e-05	0.00451631578250232
1.05398e-05	0.004529273602184952
1.05400e-05	0.0045422314218676735
1.05403e-05	0.004555189241550394
1.05405e-05	0.004568147061233027
1.05408e-05	0.004581104880915747
1.05410e-05	0.0045940627005984684
1.05413e-05	0.004596692367145143
1.05415e-05	0.004579722924777566
1.05418e-05	0.00456275348240999
1.05420e-05	0.004545784040042527
1.05423e-05	0.004528814597674951
1.05425e-05	0.004511845155307374
1.05427e-05	0.004494875712939913
1.05430e-05	0.004477906270572336
1.05433e-05	0.004460936828204759
1.05435e-05	0.004443967385837297
1.05438e-05	0.004413239265934851
1.05440e-05	0.004356402139322149
1.05442e-05	0.004299565012709832
1.05445e-05	0.0042427278860971305
1.05448e-05	0.004185890759484429
1.05450e-05	0.004129053632872112
1.05453e-05	0.00407221650625941
1.05455e-05	0.0040153793796467085
1.05458e-05	0.003958542253034007
1.05460e-05	0.00390170512642169
1.05463e-05	0.0038379085218261575
1.05465e-05	0.0037609053385529887
1.05468e-05	0.0036839021552803417
1.05470e-05	0.003606898972007173
1.05473e-05	0.0035298957887340042
1.05475e-05	0.0034528926054613576
1.05478e-05	0.003375889422188189
1.05480e-05	0.00329966746508727
1.05483e-05	0.0032235886911101204
1.05485e-05	0.0031475099171324556
1.05488e-05	0.003071431143154791
1.05490e-05	0.0029953523691776418
1.05493e-05	0.002919273595199977
1.05495e-05	0.0028469989059744165
1.05498e-05	0.002781942997339599
1.05500e-05	0.00271688708870434
1.05503e-05	0.0026560756320446076
1.05505e-05	0.0026033186141096493
1.05508e-05	0.0025505615961743332
1.05510e-05	0.0025005206578848417
1.05512e-05	0.0024556338589768324
1.05515e-05	0.0024107470600685196
1.05518e-05	0.0023699504092452163
1.05520e-05	0.0023369153840257333
1.05523e-05	0.002303880358806026
1.05525e-05	0.0022708453335863192
1.05527e-05	0.002237810308366836
1.05530e-05	0.0022047752831471294
1.05533e-05	0.002171740257927422
1.05535e-05	0.002138705232707939
1.05538e-05	0.0021056702074882323
1.05540e-05	0.002083074050535303
1.05543e-05	0.0020623911292308806
1.05545e-05	0.0020417082079265984
1.05548e-05	0.002021025286622176
1.05550e-05	0.002000342365317754
1.05553e-05	0.0019796594440134718
1.05555e-05	0.0019589765227090495
1.05558e-05	0.001938293601404627
1.05560e-05	0.0019204885089823818
1.05563e-05	0.0019081444976439472
1.05565e-05	0.0018958004863055126
1.05568e-05	0.0018834564749671617
1.05570e-05	0.001871112463628727
1.05573e-05	0.0018587684522902923
1.05575e-05	0.0018464244409519413
1.05578e-05	0.0018340804296135067
1.05580e-05	0.0018217364182750721
1.05583e-05	0.001809392406936721
1.05585e-05	0.0017970483955982864
1.05588e-05	0.0017847043842598518
1.05590e-05	0.001774801157122453
1.05593e-05	0.0017695296579220364
1.05595e-05	0.00176425815872162
1.05597e-05	0.001758986659521239
1.05600e-05	0.0017537151603208225
1.05603e-05	0.0017484436611204057
1.05605e-05	0.001743172161920025
1.05608e-05	0.0017379006627196083
1.05610e-05	0.0017326291635191917
1.05612e-05	0.0017273576643188108
1.05615e-05	0.0017220861651183943
1.05618e-05	0.0017168146659179775
1.05620e-05	0.0017160038120107195
1.05623e-05	0.0017236576537595582
1.05625e-05	0.0017313114955083968
1.05628e-05	0.0017389653372572355
1.05630e-05	0.001746619179006022
1.05633e-05	0.0017542730207548607
1.05635e-05	0.0017619268625036994
1.05638e-05	0.001769580704252486
1.05640e-05	0.0017772345460013246
1.05643e-05	0.0017848883877501632
1.05645e-05	0.00179254222949895
1.05648e-05	0.0018101333656903827
1.05650e-05	0.0018295458090869861
1.05653e-05	0.0018489582524834581
1.05655e-05	0.0018683706958800617
1.05658e-05	0.0018877831392766652
1.05660e-05	0.0019071955826731372
1.05663e-05	0.0019266080260697408
1.05665e-05	0.0019460204694663444
1.05668e-05	0.001965432912862816
1.05670e-05	0.00198484535625942
1.05673e-05	0.002005221938821006
1.05675e-05	0.0020274281097192003
1.05678e-05	0.002049634280617545
1.05680e-05	0.00207184045151589
1.05682e-05	0.0020940466224140843
1.05685e-05	0.002116252793312429
1.05688e-05	0.002138458964210774
1.05690e-05	0.0021606651351089683
1.05693e-05	0.0021828713060073127
1.05695e-05	0.0022033517247482043
1.05697e-05	0.0022205572884323923
1.05700e-05	0.0022377628521166966
1.05703e-05	0.0022549684158010013
1.05705e-05	0.0022721739794851893
1.05708e-05	0.0022893795431694936
1.05710e-05	0.0023065851068537983
1.05713e-05	0.002323790670538103
1.05715e-05	0.002340996234222291
1.05718e-05	0.002360619107288057
1.05720e-05	0.002384829161553473
1.05723e-05	0.0024090392158187253
1.05725e-05	0.0024332492700841414
1.05728e-05	0.0024574593243495576
1.05730e-05	0.00248166937861481
1.05733e-05	0.002505879432880226
1.05735e-05	0.002530089487145642
1.05738e-05	0.0025542995414108943
1.05740e-05	0.0025785095956763105
1.05743e-05	0.0026027196499417266
1.05745e-05	0.002626929704206979
1.05748e-05	0.002661266696940636
1.05750e-05	0.002697459754835343
1.05753e-05	0.0027336528127298045
1.05755e-05	0.0027698458706245112
1.05758e-05	0.002806038928519218
1.05760e-05	0.0028422319864136792
1.05763e-05	0.0028784250443083864
1.05765e-05	0.002914618102203093
1.05767e-05	0.0029508111600975544
1.05770e-05	0.002987004217992261
1.05773e-05	0.003023197275886968
1.05775e-05	0.003059734068904482
1.05778e-05	0.0030969231471889096
1.05780e-05	0.003134112225473337
1.05782e-05	0.0031713013037575127
1.05785e-05	0.0032084903820419402
1.05788e-05	0.0032456794603263677
1.05790e-05	0.0032828685386105433
1.05793e-05	0.003320057616894971
1.05795e-05	0.003353010907813339
1.05798e-05	0.003377926202302231
1.05800e-05	0.003402841496790954
1.05803e-05	0.003427756791279846
1.05805e-05	0.003452672085768738
1.05808e-05	0.0034775873802574612
1.05810e-05	0.003502502674746353
1.05813e-05	0.003527417969235245
1.05815e-05	0.0035421541662124965
1.05818e-05	0.003537574108055046
1.05820e-05	0.003532994049897596
1.05823e-05	0.0035284139917401767
1.05825e-05	0.003523833933582727
1.05828e-05	0.0035192538754252765
1.05830e-05	0.0035146738172678574
1.05833e-05	0.003510093759110407
1.05835e-05	0.0035055137009529567
1.05838e-05	0.0035009336427955376
1.05840e-05	0.0034852823948965253
1.05843e-05	0.003448622022616891
1.05845e-05	0.0034119616503375054
1.05848e-05	0.0033753012780578713
1.05850e-05	0.0033386409057782375
1.05853e-05	0.003301980533498852
1.05855e-05	0.0032653201612192176
1.05858e-05	0.0032286597889395834
1.05860e-05	0.0031919994166601977
1.05863e-05	0.0031553390443805635
1.05865e-05	0.003113585690081309
1.05867e-05	0.003062167693118028
1.05870e-05	0.0030107496961543985
1.05873e-05	0.0029593316991907695
1.05875e-05	0.002907913702227488
1.05878e-05	0.002856495705263859
1.05880e-05	0.0028050777083002297
1.05883e-05	0.0027547955724760128
1.05885e-05	0.0027047216172682888
1.05888e-05	0.0026546476620602256
1.05890e-05	0.0026045737068521625
1.05893e-05	0.0025544997516444385
1.05895e-05	0.0025044257964363754
1.05898e-05	0.0024615943783361416
1.05900e-05	0.0024325066830431707
1.05903e-05	0.002403418987750003
1.05905e-05	0.002374331292456835
1.05908e-05	0.0023452435971638643
1.05910e-05	0.0023161559018706965
1.05913e-05	0.0022870682065775283
1.05915e-05	0.002257980511284558
1.05918e-05	0.0022288928159913896
1.05920e-05	0.002199805120698222
1.05923e-05	0.0021840697476062463
1.05925e-05	0.002193672265427154
1.05928e-05	0.0022032747832480618
1.05930e-05	0.0022128773010689044
1.05933e-05	0.002222479818889812
1.05935e-05	0.00223208233671072
1.05938e-05	0.0022416848545315626
1.05940e-05	0.0022512873723524703
1.05943e-05	0.002260889890173378
1.05945e-05	0.0022704924079942207
1.05948e-05	0.0022899489481946022
1.05950e-05	0.0023281048681998728
1.05952e-05	0.002366260788204885
1.05955e-05	0.002404416708210155
1.05958e-05	0.0024425726282154255
1.05960e-05	0.0024807285482204375
1.05963e-05	0.0025188844682257077
1.05965e-05	0.0025611430842535266
1.05968e-05	0.0026111871373546403
1.05970e-05	0.0026612311904554153
1.05973e-05	0.002711275243556529
1.05975e-05	0.002761319296657643
1.05978e-05	0.0028113633497584174
1.05980e-05	0.0028614074028595316
1.05983e-05	0.0029107811723991864
1.05985e-05	0.0029588829855321346
1.05988e-05	0.003006984798665408
1.05990e-05	0.003055086611798682
1.05993e-05	0.00310318842493163
1.05995e-05	0.0031512902380649035
1.05998e-05	0.0031993920511981773
1.06000e-05	0.0032413373982639053
1.06003e-05	0.0032715999935725836
1.06005e-05	0.0033018625888812624
1.06008e-05	0.0033321251841897355
1.06010e-05	0.0033623877794984143
1.06013e-05	0.0033926503748070926
1.06015e-05	0.003422912970115566
1.06018e-05	0.0034418394948290683
1.06020e-05	0.0034392542468422178
1.06023e-05	0.003436668998855385
1.06025e-05	0.0034340837508685346
1.06028e-05	0.003431498502881684
1.06030e-05	0.0034289132548948513
1.06033e-05	0.003426328006908001
1.06035e-05	0.0034237427589211503
1.06037e-05	0.0034211575109343176
1.06040e-05	0.0034068328860661756
1.06043e-05	0.003370231158651658
1.06045e-05	0.0033336294312373885
1.06048e-05	0.003297027703822871
1.06050e-05	0.003260425976408354
1.06053e-05	0.003223824248993836
1.06055e-05	0.003187222521579567
1.06058e-05	0.0031506207941650495
1.06060e-05	0.003114019066750532
1.06063e-05	0.003071355027278237
1.06065e-05	0.003017186906391966
1.06068e-05	0.002963018785505695
1.06070e-05	0.0029088506646197916
1.06073e-05	0.0028546825437335208
1.06075e-05	0.00280051442284725
1.06078e-05	0.0027463463019613463
1.06080e-05	0.00269126061039676
1.06083e-05	0.0026360067464889824
1.06085e-05	0.0025807528825815794
1.06088e-05	0.002525499018673802
1.06090e-05	0.002470245154766025
1.06093e-05	0.002414991290858622
1.06095e-05	0.0023649769820298762
1.06098e-05	0.002324905458665024
1.06100e-05	0.002284833935300443
1.06103e-05	0.0022447624119355906
1.06105e-05	0.0022046908885707383
1.06108e-05	0.002164619365206157
1.06110e-05	0.0021245478418413046
1.06113e-05	0.0020844763184764523
1.06115e-05	0.0020444047951118714
1.06118e-05	0.0020195758514273154
1.06120e-05	0.0019975405675690303
1.06122e-05	0.0019755052837108944
1.06125e-05	0.0019534699998526093
1.06128e-05	0.001931434715994324
1.06130e-05	0.0019093994321361882
1.06133e-05	0.0018873641482779029
1.06135e-05	0.0018653288644196176
1.06138e-05	0.001847737979259505
1.06140e-05	0.0018385809595922334
1.06143e-05	0.0018294239399248998
1.06145e-05	0.0018202669202575662
1.06148e-05	0.0018111099005902948
1.06150e-05	0.0018019528809229612
1.06153e-05	0.0017927958612556276
1.06155e-05	0.001783638841588356
1.06158e-05	0.0017744818219210224
1.06160e-05	0.0017653248022536888
1.06163e-05	0.0017589006088910388
1.06165e-05	0.0017576623340373604
1.06168e-05	0.0017564240591836822
1.06170e-05	0.0017551857843300124
1.06173e-05	0.0017539475094763342
1.06175e-05	0.001752709234622656
1.06178e-05	0.001751470959768986
1.06180e-05	0.0017502326849153078
1.06183e-05	0.0017489944100616296
1.06185e-05	0.0017477561352079597
1.06188e-05	0.0017468339965312253
1.06190e-05	0.0017465117702780005
1.06193e-05	0.001746189544024778
1.06195e-05	0.0017458673177715531
1.06198e-05	0.0017455450915183283
1.06200e-05	0.0017452228652651057
1.06203e-05	0.001744900639011881
1.06205e-05	0.0017445784127586561
1.06207e-05	0.0017442561865054335
1.06210e-05	0.0017439339602522087
1.06213e-05	0.001743611733998984
1.06215e-05	0.0017432895077457613
1.06218e-05	0.0017429672814925365
1.06220e-05	0.0017426450552393117
1.06222e-05	0.0017423228289860891
1.06225e-05	0.0017420006027328643
1.06228e-05	0.0017416783764796395
1.06230e-05	0.0017413561502264145
1.06233e-05	0.0017410339239731921
1.06235e-05	0.0017407116977199671
1.06238e-05	0.0017403894714667423
1.06240e-05	0.001736783686020368
1.06243e-05	0.0017325760898829726
1.06245e-05	0.0017283684937455769
1.06248e-05	0.0017241608976082097
1.06250e-05	0.0017199533014708142
1.06253e-05	0.0017157457053334187
1.06255e-05	0.0017115381091960516
1.06258e-05	0.001707330513058656
1.06260e-05	0.0017031229169212603
1.06263e-05	0.0016989153207838932
1.06265e-05	0.0016947077246464977
1.06268e-05	0.0016905001285091022
1.06270e-05	0.001686292532371735
1.06273e-05	0.0016820849362343395
1.06275e-05	0.0016778773400969438
1.06278e-05	0.0016736697439595767
1.06280e-05	0.0016694621478221812
1.06283e-05	0.0016652545516847857
1.06285e-05	0.0016610469555474185
1.06288e-05	0.0016568393594100228
1.06290e-05	0.0016525293449460947
1.06292e-05	0.001648024977443919
1.06295e-05	0.0016435206099417131
1.06298e-05	0.0016390162424395071
1.06300e-05	0.0016345118749373315
1.06303e-05	0.001632476607356675
1.06305e-05	0.0016308938763812566
1.06307e-05	0.001629311145405849
1.06310e-05	0.0016277284144304307
1.06313e-05	0.001629950726929002
1.06315e-05	0.0016393936393437041
1.06318e-05	0.00165184600935567
1.06320e-05	0.0016700092442824919
1.06323e-05	0.0016908731045139457
1.06325e-05	0.0017168617773737364
1.06328e-05	0.001745913703387148
1.06330e-05	0.0017807785788751312
1.06333e-05	0.0018194299142420464
1.06335e-05	0.0018652665845662528
1.06338e-05	0.0019152156486120454
1.06340e-05	0.0019729685524729583
1.06343e-05	0.0020307214563342626
1.06345e-05	0.002092598271013977
1.06348e-05	0.0021623007808041638
1.06350e-05	0.0022320032905948227
1.06353e-05	0.002305768951821652
1.06355e-05	0.002387245008769404
1.06358e-05	0.0024687210657177083
1.06360e-05	0.0025537952378346484
1.06363e-05	0.0026456973345898283
1.06365e-05	0.002737599431345631
1.06368e-05	0.0028295015281014336
1.06370e-05	0.0029214036248566134
1.06373e-05	0.003013305721612416
1.06375e-05	0.003105968616362547
1.06377e-05	0.0032000752312620418
1.06380e-05	0.0032941818461621735
1.06383e-05	0.0033882884610623057
1.06385e-05	0.0034823950759618
1.06388e-05	0.003576501690861932
1.06390e-05	0.003665027185502142
1.06392e-05	0.0037429617271695784
1.06395e-05	0.0038208962688375428
1.06398e-05	0.003898830810505507
1.06400e-05	0.003976765352173472
1.06403e-05	0.004054699893840908
1.06405e-05	0.0041326344355088725
1.06408e-05	0.004178763018701342
1.06410e-05	0.004219062206187057
1.06413e-05	0.004259361393673045
1.06415e-05	0.0042996605811590335
1.06418e-05	0.0043399597686447485
1.06420e-05	0.004380258956130737
1.06423e-05	0.004408607332211238
1.06425e-05	0.0044142773792659
1.06428e-05	0.004419947426320602
1.06430e-05	0.0044179213742494535
1.06433e-05	0.0044012909022550116
1.06435e-05	0.004384660430260457
1.06438e-05	0.00436089267939528
1.06440e-05	0.004323580947868284
1.06443e-05	0.004286269216341035
1.06445e-05	0.00424252210603965
1.06448e-05	0.004186562968262542
1.06450e-05	0.004130603830485054
1.06453e-05	0.004067113971058239
1.06455e-05	0.003989333518501858
1.06458e-05	0.00391155306594495
1.06460e-05	0.0038337726133880414
1.06462e-05	0.0037559921608316606
1.06465e-05	0.0036782117082747525
1.06468e-05	0.003594975352467735
1.06470e-05	0.0035013856604022555
1.06473e-05	0.0034077959683361425
1.06475e-05	0.0033142062762700295
1.06477e-05	0.0032206165842045506
1.06480e-05	0.0031270268921384375
1.06483e-05	0.0030340061125185397
1.06485e-05	0.002942064923497668
1.06488e-05	0.0028501237344774185
