Time(s)	Current(A)
6.75000e-06	0.002601519205746571
6.75025e-06	0.0025958007207873895
6.75050e-06	0.002590082235828188
6.75075e-06	0.002584363750869007
6.75100e-06	0.002578645265909825
6.75125e-06	0.002568491565787496
6.75150e-06	0.002556482476193994
6.75175e-06	0.0025444733866004927
6.75200e-06	0.00253246429700695
6.75225e-06	0.002520455207413449
6.75250e-06	0.002508446117819947
6.75275e-06	0.0024964370282264045
6.75300e-06	0.002484427938632903
6.75325e-06	0.0024724188490394014
6.75350e-06	0.002460409759445859
6.75375e-06	0.0024484006698523575
6.75400e-06	0.0024363915802588557
6.75425e-06	0.002424382490665313
6.75450e-06	0.002412373401071812
6.75475e-06	0.00240036431147831
6.75500e-06	0.0023883552218847675
6.75525e-06	0.002376346132291266
6.75550e-06	0.00236650398782059
6.75575e-06	0.002357568344391583
6.75600e-06	0.0023486327009625764
6.75625e-06	0.0023396970575335395
6.75650e-06	0.0023307614141045326
6.75675e-06	0.002321825770675526
6.75700e-06	0.002312890127246489
6.75725e-06	0.002303954483817482
6.75750e-06	0.0022950188403884756
6.75775e-06	0.0022860831969594387
6.75800e-06	0.0022771475535304318
6.75825e-06	0.0022682119101014252
6.75850e-06	0.0022592762666723883
6.75875e-06	0.002252978668970913
6.75900e-06	0.002256908160367216
6.75925e-06	0.0022608376517635324
6.75950e-06	0.0022647671431598355
6.75975e-06	0.0022686966345561517
6.76000e-06	0.002272626125952455
6.76025e-06	0.002276555617348758
6.76050e-06	0.002280485108745074
6.76075e-06	0.0022844146001413774
6.76100e-06	0.0022883440915376805
6.76125e-06	0.0022922735829339967
6.76150e-06	0.0022962030743303
6.76175e-06	0.002300132565726603
6.76200e-06	0.002304062057122919
6.76225e-06	0.0023146680184421954
6.76250e-06	0.0023280669563231883
6.76275e-06	0.0023414658942042268
6.76300e-06	0.0023548648320852197
6.76325e-06	0.0023682637699662125
6.76350e-06	0.002381662707847251
6.76375e-06	0.002395061645728244
6.76400e-06	0.002408460583609282
6.76425e-06	0.0024218595214902747
6.76450e-06	0.0024352584593712676
6.76475e-06	0.002448874988876363
6.76500e-06	0.002462582543775519
6.76525e-06	0.002476290098674675
6.76550e-06	0.0024899976535738776
6.76575e-06	0.0025037052084730337
6.76600e-06	0.00251741276337219
6.76625e-06	0.0025311203182713923
6.76650e-06	0.0025448278731705484
6.76675e-06	0.0025585354280697045
6.76700e-06	0.0025722429829689074
6.76725e-06	0.0025802151730608667
6.76750e-06	0.0025857880803488334
6.76775e-06	0.002591360987636819
6.76800e-06	0.002596933894924786
6.76825e-06	0.0026025068022127716
6.76850e-06	0.0026080797095007382
6.76875e-06	0.002613652616788705
6.76900e-06	0.0026192255240766902
6.76925e-06	0.002624798431364657
6.76950e-06	0.0026303713386526236
6.76975e-06	0.0026359442459406093
6.77000e-06	0.002641517153228576
6.77025e-06	0.0026470900605165427
6.77050e-06	0.0026526629678045284
6.77075e-06	0.002658235875092495
6.77100e-06	0.0026638087823804618
6.77125e-06	0.0026679991731868467
6.77150e-06	0.002666829869472521
6.77175e-06	0.002665660565758195
6.77200e-06	0.002664491262043865
6.77225e-06	0.0026633219583295396
6.77250e-06	0.00266215265461521
6.77275e-06	0.002660983350900884
6.77300e-06	0.002659814047186558
6.77325e-06	0.002658644743472228
6.77350e-06	0.0026574754397579023
6.77375e-06	0.0026563061360435768
6.77400e-06	0.002655136832329247
6.77425e-06	0.002653967528614921
6.77450e-06	0.002652798224900595
6.77475e-06	0.0026516289211862653
6.77500e-06	0.00265045961747194
6.77525e-06	0.002649290313757614
6.77550e-06	0.0026477226509496916
6.77575e-06	0.0026459883420512425
6.77600e-06	0.002644254033152794
6.77625e-06	0.0026425197242543395
6.77650e-06	0.002640785415355891
6.77675e-06	0.002639051106457436
6.77700e-06	0.0026373167975589874
6.77725e-06	0.0026355824886605387
6.77750e-06	0.002633848179762084
6.77775e-06	0.0026321138708636353
6.77800e-06	0.0026303795619651866
6.77825e-06	0.0026286452530667323
6.77850e-06	0.002628334539734418
6.77875e-06	0.002633542774968441
6.77900e-06	0.0026387510102024816
6.77925e-06	0.0026439592454365044
6.77950e-06	0.0026491674806705273
6.77975e-06	0.002654375715904568
6.78000e-06	0.0026595839511385907
6.78025e-06	0.0026647921863726136
6.78050e-06	0.0026700004216066537
6.78075e-06	0.0026752086568406766
6.78100e-06	0.002680416892074717
6.78125e-06	0.00268562512730874
6.78150e-06	0.002690833362542763
6.78175e-06	0.002700981893100591
6.78200e-06	0.002713197103985011
6.78225e-06	0.00272541231486943
6.78250e-06	0.002737627525753891
6.78275e-06	0.00274984273663831
6.78300e-06	0.0027620579475227296
6.78325e-06	0.00277427315840719
6.78350e-06	0.0027864883692916096
6.78375e-06	0.002798703580176029
6.78400e-06	0.00281190492134292
6.78425e-06	0.002825612024915575
6.78450e-06	0.0028393191284882303
6.78475e-06	0.0028530262320609324
6.78500e-06	0.0028667333356335875
6.78525e-06	0.002880440439206289
6.78550e-06	0.0028941475427789443
6.78575e-06	0.0029078546463515995
6.78600e-06	0.002921561749924301
6.78625e-06	0.002929324632770233
6.78650e-06	-0.0004023568641114538
6.78675e-06	-0.013255512472500106
6.78700e-06	-0.01290117517149905
6.78725e-06	-0.010198380338215966
6.78750e-06	-0.006171661709924852
6.78775e-06	0.004479261718711609
6.78800e-06	0.005677285132413483
6.78825e-06	0.005071083763554814
6.78850e-06	0.002588654679755332
6.78875e-06	-0.006740339913317503
6.78900e-06	-0.006832848309058262
6.78925e-06	-0.0034050418974133244
6.78950e-06	0.00040037920707528533
6.78975e-06	0.004996942909070508
6.79000e-06	0.006981335067704758
6.79025e-06	0.0061061216827865816
6.79050e-06	0.003218157017952618
6.79075e-06	-0.00042699534680236845
6.79100e-06	-0.0017813308700081725
6.79125e-06	-0.000514913833442879
6.79150e-06	0.0020876525156077277
6.79175e-06	0.004920523885087045
6.79200e-06	0.006122788457992612
6.79225e-06	0.005538656182788662
6.79250e-06	0.00369794382208749
6.79275e-06	0.0013865603479409035
6.79300e-06	0.0005131858278800823
6.79325e-06	0.0012839036529622894
6.79350e-06	0.002893558199802294
6.79375e-06	0.004649101180437779
6.79400e-06	0.0053846506045619235
6.79425e-06	0.005002512504947191
6.79450e-06	0.00383448415099355
6.79475e-06	0.0023727710645328522
6.79500e-06	0.0018128308154864133
6.79525e-06	0.002283577306884797
6.79550e-06	0.0032805204571148706
6.79575e-06	0.004369452739901451
6.79600e-06	0.004820048787463321
6.79625e-06	0.004571143170330654
6.79650e-06	0.003830602672707448
6.79675e-06	0.0029067592227810493
6.79700e-06	0.0025484173273411484
6.79725e-06	0.0028362622761691704
6.79750e-06	0.0034541316432265506
6.79775e-06	0.004129509110188777
6.79800e-06	0.00440418040541648
6.79825e-06	0.004239516636686077
6.79850e-06	0.003765782460124262
6.79875e-06	0.003176198996591447
6.79900e-06	0.0029398709926755
6.79925e-06	0.0031073711428337195
6.79950e-06	0.003480695482663136
6.79975e-06	0.0038891965903359326
6.80000e-06	0.004045929008028597
6.80025e-06	0.003926788477139022
6.80050e-06	0.0036134646118702
6.80075e-06	0.0032270726672629898
6.80100e-06	0.003061523022772072
6.80125e-06	0.0031485436116375897
6.80150e-06	0.003364158643974649
6.80175e-06	0.0036015395363019316
6.80200e-06	0.0036810212391973495
6.80225e-06	0.003587591829380174
6.80250e-06	0.003372506331495974
6.80275e-06	0.0031117109206927622
6.80300e-06	0.002989378299430137
6.80325e-06	0.003025441099553483
6.80350e-06	0.003142302274320242
6.80375e-06	0.003273112187042235
6.80400e-06	0.003305404862842266
6.80425e-06	0.0032298586643127944
6.80450e-06	0.003078660111613699
6.80475e-06	0.002899458940658607
6.80500e-06	0.002807690462727423
6.80525e-06	0.002815903784980241
6.80550e-06	0.002875557887592005
6.80575e-06	0.0029448479145860306
6.80600e-06	0.0029533999168869776
6.80625e-06	0.0028954530863573437
6.80650e-06	0.0027912468562327547
6.80675e-06	0.0026707041774389727
6.80700e-06	0.0026062041138476526
6.80725e-06	0.002605677057533105
6.80750e-06	0.0026388324322809413
6.80775e-06	0.0026797713618795225
6.80800e-06	0.002684758699389159
6.80825e-06	0.0026502876197619053
6.80850e-06	0.002588939735402297
6.80875e-06	0.0025193414416608173
6.80900e-06	0.002486711102145271
6.80925e-06	0.0024958940377222396
6.80950e-06	0.0025277941237416496
6.80975e-06	0.0025660681028900813
6.81000e-06	0.0025832026765374495
6.81025e-06	0.002576883990220702
6.81050e-06	0.0025548766885571937
6.81075e-06	0.002528730274369648
6.81100e-06	0.0025266493576240464
6.81125e-06	0.002551548397906023
6.81150e-06	0.0025913447817313656
6.81175e-06	0.0026356814246795072
6.81200e-06	0.0026672059571165242
6.81225e-06	0.0026842209777421058
6.81250e-06	0.002690094596389562
6.81275e-06	0.002696858183339324
6.81300e-06	0.002716884862290789
6.81325e-06	0.0027537592582587227
6.81350e-06	0.002800970211457096
6.81375e-06	0.0028477124596278003
6.81400e-06	0.0028874187618078678
6.81425e-06	0.002917520616439431
6.81450e-06	0.002941623632721634
6.81475e-06	0.0029657266490037554
6.81500e-06	0.0029909646214813877
6.81525e-06	0.0030316050939158488
6.81550e-06	0.003071968194280886
6.81575e-06	0.0031085670759876055
6.81600e-06	0.003145165957694201
6.81625e-06	0.003180735166400106
6.81650e-06	0.003202330674260363
6.81675e-06	0.0032239261821205467
6.81700e-06	0.003245851273545238
6.81725e-06	0.0032722491462615156
6.81750e-06	0.003298647018977704
6.81775e-06	0.003324037892942982
6.81800e-06	0.0033357627784961433
6.81825e-06	0.003347487664049265
6.81850e-06	0.0033584603418820563
6.81875e-06	0.003359224802495389
6.81900e-06	0.0033599892631087196
6.81925e-06	0.0033604285556973327
6.81950e-06	0.0033564549903225215
6.81975e-06	0.00335248142494771
6.82000e-06	0.0033471879327374296
6.82025e-06	0.0033239817024844423
6.82050e-06	0.003300775472231455
6.82075e-06	0.003277569241978389
6.82100e-06	0.0032543630117254016
6.82125e-06	0.0032311567814724143
6.82150e-06	0.0032079505512193486
6.82175e-06	0.003175580370623555
6.82200e-06	0.0031362582837987448
6.82225e-06	0.003096936196973801
6.82250e-06	0.003057614110148991
6.82275e-06	0.0030182920233241804
6.82300e-06	0.002978969936499237
6.82325e-06	0.002939068093429731
6.82350e-06	0.002891298373551513
6.82375e-06	0.0028435286536734575
6.82400e-06	0.0027957589337954014
6.82425e-06	0.0027479892139171836
6.82450e-06	0.002700219494039128
6.82475e-06	0.002652449774161072
6.82500e-06	0.0026051652897827993
6.82525e-06	0.0025582489121237597
6.82550e-06	0.00251133253446472
6.82575e-06	0.0024644161568055213
6.82600e-06	0.0024174997791464817
6.82625e-06	0.002370583401487442
6.82650e-06	0.0023241808825349777
6.82675e-06	0.0022847519443547695
6.82700e-06	0.0022453230061745613
6.82725e-06	0.002206796672162809
6.82750e-06	0.0021805195868105334
6.82775e-06	0.0021542425014581695
6.82800e-06	0.0021279654161058944
6.82825e-06	0.0021016883307536194
6.82850e-06	0.002075411245401255
6.82875e-06	0.00204913416004898
6.82900e-06	0.002022857074696705
6.82925e-06	0.001996579989344341
6.82950e-06	0.0019712828005259263
6.82975e-06	0.00195928379569501
6.83000e-06	0.0019472847908640525
6.83025e-06	0.0019352857860331356
6.83050e-06	0.001923286781202219
6.83075e-06	0.0019112877763712616
6.83100e-06	0.001899288771540345
6.83125e-06	0.001887289766709428
6.83150e-06	0.0018752907618784708
6.83175e-06	0.0018639761420231255
6.83200e-06	0.0018619493163455152
6.83225e-06	0.0018599224906679116
6.83250e-06	0.0018578956649903083
6.83275e-06	0.001855868839312698
6.83300e-06	0.0018538420136350944
6.83325e-06	0.0018518151879574909
6.83350e-06	0.0018497883622798806
6.83375e-06	0.001847761536602277
6.83400e-06	0.0018457347109246736
6.83425e-06	0.0018440058654776088
6.83450e-06	0.0018463209122089913
6.83475e-06	0.0018486359589403739
6.83500e-06	0.0018509510056717645
6.83525e-06	0.001853266052403147
6.83550e-06	0.0018555810991345296
6.83575e-06	0.0018578961458659202
6.83600e-06	0.0018602111925973028
6.83625e-06	0.0018625262393286931
6.83650e-06	0.0018648412860600757
6.83675e-06	0.001867224216866002
6.83700e-06	0.001870528403010059
6.83725e-06	0.0018738325891541048
6.83750e-06	0.0018771367752981505
6.83775e-06	0.0018804409614422075
6.83800e-06	0.0018837451475862532
6.83825e-06	0.0018870493337302988
6.83850e-06	0.0018903535198743558
6.83875e-06	0.0018936577060184015
6.83900e-06	0.0018969618921624474
6.83925e-06	0.0019002660783065041
6.83950e-06	0.00190357026445055
6.83975e-06	0.0019068744505945957
6.84000e-06	0.0019101786367386527
6.84025e-06	0.0019134828228826984
6.84050e-06	0.0019167870090267553
6.84075e-06	0.001920091195170801
6.84100e-06	0.0019233953813148467
6.84125e-06	0.0019291771954427408
6.84150e-06	0.0019368385742521241
6.84175e-06	0.0019444999530615072
6.84200e-06	0.0019521613318709164
6.84225e-06	0.0019598227106802997
6.84250e-06	0.001967484089489683
6.84275e-06	0.001975145468299092
6.84300e-06	0.001982806847108475
6.84325e-06	0.0019904682259178582
6.84350e-06	0.0019981296047272674
6.84375e-06	0.0020057909835366505
6.84400e-06	0.002013452362346034
6.84425e-06	0.002021113741155443
6.84450e-06	0.0020287751199648263
6.84475e-06	0.0020364364987742354
6.84500e-06	0.0020440978775836185
6.84525e-06	0.0020517592563930017
6.84550e-06	0.0020591325459939727
6.84575e-06	0.002062596174562792
6.84600e-06	0.0020660598031316114
6.84625e-06	0.0020695234317004425
6.84650e-06	0.0020729870602692615
6.84675e-06	0.002076450688838081
6.84700e-06	0.002079914317406912
6.84725e-06	0.0020833779459757313
6.84750e-06	0.0020868415745445503
6.84775e-06	0.0020903052031133814
6.84800e-06	0.0020937688316822007
6.84825e-06	0.0020972324602510197
6.84850e-06	0.0021006960888198508
6.84875e-06	0.00210415971738867
6.84900e-06	0.0021076233459575012
6.84925e-06	0.00211108697452632
6.84950e-06	0.0021145506030951396
6.84975e-06	0.0021180142316639707
6.85000e-06	0.002114560459381129
6.85025e-06	0.002105859046043455
6.85050e-06	0.002097157632705751
6.85075e-06	0.002088456219368077
6.85100e-06	0.0020797548060304026
6.85125e-06	0.002071053392692699
6.85150e-06	0.0020623519793550246
6.85175e-06	0.0020536505660173504
6.85200e-06	0.002044949152679646
6.85225e-06	0.002036247739341972
6.85250e-06	0.0020275463260042976
6.85275e-06	0.002018844912666594
6.85300e-06	0.0020101434993289196
6.85325e-06	0.002001442085991216
6.85350e-06	0.0019927406726535416
6.85375e-06	0.0019840392593158673
6.85400e-06	0.0019753378459781636
6.85425e-06	0.001966525273282298
6.85450e-06	0.0019562041560173553
6.85475e-06	0.0019458830387523772
6.85500e-06	0.0019355619214874342
6.85525e-06	0.0019252408042224913
6.85550e-06	0.0019149196869575134
6.85575e-06	0.0019045985696925704
6.85600e-06	0.0018942774524276272
6.85625e-06	0.0018839563351626494
6.85650e-06	0.0018736352178977064
6.85675e-06	0.0018633141006327634
6.85700e-06	0.0018529929833677853
6.85725e-06	0.0018426718661028424
6.85750e-06	0.0018323507488378645
6.85775e-06	0.0018220296315729215
6.85800e-06	0.0018117085143079786
6.85825e-06	0.0018013873970430005
6.85850e-06	0.0017910662797780575
6.85875e-06	0.0017811966492450103
6.85900e-06	0.001777454148881459
6.85925e-06	0.0017737116485179202
6.85950e-06	0.0017699691481543817
6.85975e-06	0.0017662266477908304
6.86000e-06	0.0017624841474272917
6.86025e-06	0.001758741647063753
6.86050e-06	0.0017549991467002016
6.86075e-06	0.0017512566463366629
6.86100e-06	0.0017475141459731244
6.86125e-06	0.001743771645609573
6.86150e-06	0.0017400291452460343
6.86175e-06	0.001736286644882483
6.86200e-06	0.0017325441445189443
6.86225e-06	0.0017288016441554055
6.86250e-06	0.0017250591437918542
6.86275e-06	0.0017213166434283157
6.86300e-06	0.001717574143064777
6.86325e-06	0.0017140186829158592
6.86350e-06	0.00171300154706445
6.86375e-06	0.0017119844112130408
6.86400e-06	0.001710967275361628
6.86425e-06	0.0017099501395102187
6.86450e-06	0.0017089330036588095
6.86475e-06	0.0017079158678073966
6.86500e-06	0.0017068987319559875
6.86525e-06	0.0017058815961045783
6.86550e-06	0.0017048644602531654
6.86575e-06	0.0017038473244017562
6.86600e-06	0.0017028301885503435
6.86625e-06	0.0017015189530270388
6.86650e-06	0.0016999846092084316
6.86675e-06	0.001698450265389819
6.86700e-06	0.0016969159215712117
6.86725e-06	0.0016953815777526044
6.86750e-06	0.0016938472339339918
6.86775e-06	0.0016923128901153845
6.86800e-06	0.0016907785462967773
6.86825e-06	0.0016892442024781648
6.86850e-06	0.0016877098586595574
6.86875e-06	0.00168617551484095
6.86900e-06	0.0016842578332898089
6.86925e-06	0.0016771378722068746
6.86950e-06	0.0016700179111239404
6.86975e-06	0.001662897950040982
6.87000e-06	0.0016557779889580476
6.87025e-06	0.0016486580278750893
6.87050e-06	0.001641538066792155
6.87075e-06	0.0016344181057092208
6.87100e-06	0.0016272981446262623
6.87125e-06	0.001620178183543328
6.87150e-06	0.0016130582224603938
6.87175e-06	0.0016059382613774354
6.87200e-06	0.0015959566423325241
6.87225e-06	0.0015838041278715804
6.87250e-06	0.0015716516134105952
6.87275e-06	0.0015594990989496514
6.87300e-06	0.0015473465844887077
6.87325e-06	0.0015351940700277227
6.87350e-06	0.001523041555566779
6.87375e-06	0.001510889041105835
6.87400e-06	0.00149873652664485
6.87425e-06	0.0014865840121839062
6.87450e-06	0.0014744314977229213
6.87475e-06	0.0014623620200806175
6.87500e-06	0.001451419435788896
6.87525e-06	0.0014404768514971378
6.87550e-06	0.0014295342672054163
6.87575e-06	0.0014185916829136949
6.87600e-06	0.0014076490986219365
6.87625e-06	0.001396706514330215
6.87650e-06	0.0013857639300384936
6.87675e-06	0.0013748213457467353
6.87700e-06	0.0013638787614550139
6.87725e-06	0.0013529361771632924
6.87750e-06	0.001341993592871534
6.87775e-06	0.0013315822189321953
6.87800e-06	0.0013283799050644873
6.87825e-06	0.0013251775911967683
6.87850e-06	0.0013219752773290603
6.87875e-06	0.0013187729634613415
6.87900e-06	0.0013155706495936333
6.87925e-06	0.0013123683357259253
6.87950e-06	0.0013091660218582065
6.87975e-06	0.0013059637079904983
6.88000e-06	0.0013027613941227903
6.88025e-06	0.0012995590802550715
6.88050e-06	0.0012963567663873633
6.88075e-06	0.0012936525331023552
6.88100e-06	0.0012977077555100611
6.88125e-06	0.0013017629779177534
6.88150e-06	0.0013058182003254457
6.88175e-06	0.0013098734227331517
6.88200e-06	0.001313928645140844
6.88225e-06	0.0013179838675485365
6.88250e-06	0.0013220390899562424
6.88275e-06	0.0013260943123639347
6.88300e-06	0.0013301495347716407
6.88325e-06	0.001334204757179333
6.88350e-06	0.0013399293778531755
6.88375e-06	0.001346920428369766
6.88400e-06	0.0013539114788863327
6.88425e-06	0.0013609025294028995
6.88450e-06	0.00136789357991949
6.88475e-06	0.0013748846304360567
6.88500e-06	0.0013818756809526236
6.88525e-06	0.001388866731469214
6.88550e-06	0.0013958577819857807
6.88575e-06	0.0014028488325023476
6.88600e-06	0.001409555191718091
6.88625e-06	0.0014123980029454016
6.88650e-06	0.001415240814172712
6.88675e-06	0.0014180836254000322
6.88700e-06	0.0014209264366273427
6.88725e-06	0.0014237692478546627
6.88750e-06	0.001426612059081973
6.88775e-06	0.0014294548703092835
6.88800e-06	0.0014322976815366035
6.88825e-06	0.001435140492763914
6.88850e-06	0.0014379833039912244
6.88875e-06	0.0014408261152185446
6.88900e-06	0.001443668926445855
6.88925e-06	0.0014465117376731655
6.88950e-06	0.0014493545489004855
6.88975e-06	0.001452197360127796
6.89000e-06	0.0014543789294449753
6.89025e-06	0.0014475867793563664
6.89050e-06	0.0014407946292677805
6.89075e-06	0.0014340024791791946
6.89100e-06	0.0014272103290905857
6.89125e-06	0.0014204181790019998
6.89150e-06	0.0014136260289133909
6.89175e-06	0.001406833878824805
6.89200e-06	0.001400041728736219
6.89225e-06	0.0013932495786476101
6.89250e-06	0.0013864574285590242
6.89275e-06	0.0013796652784704383
6.89300e-06	0.0013728731283818294
6.89325e-06	0.0013660809782932435
6.89350e-06	0.0013592888282046576
6.89375e-06	0.0013524966781160487
6.89400e-06	0.0013454727864199041
6.89425e-06	0.0013353039274608752
6.89450e-06	0.0013251350685018115
6.89475e-06	0.0013149662095427823
6.89500e-06	0.0013047973505837533
6.89525e-06	0.0012946284916246897
6.89550e-06	0.0012845340084134888
6.89575e-06	0.0012754488790878693
6.89600e-06	0.0012663637497622809
6.89625e-06	0.0012572786204366924
6.89650e-06	0.001248193491111073
6.89675e-06	0.0012391083617854844
6.89700e-06	0.0012301297700094943
6.89725e-06	0.0012229577524664654
6.89750e-06	0.001220681506961848
6.89775e-06	0.0012184052614572307
6.89800e-06	0.0012161290159526056
6.89825e-06	0.0012138527704479882
6.89850e-06	0.001211576524943371
