Time(s)	Current(A)
1.20500e-05	0.00045472653541041606
1.20503e-05	0.0004360335732202572
1.20505e-05	0.00041901598147559585
1.20508e-05	0.0004023921776448007
1.20510e-05	0.00038807203562101145
1.20513e-05	0.0003737518935971252
1.20515e-05	0.0003596289726824051
1.20518e-05	0.00034665979651393947
1.20520e-05	0.00033389309571782666
1.20523e-05	0.000322310877141604
1.20525e-05	0.00031072865856545984
1.20528e-05	0.00029944369674795326
1.20530e-05	0.00028989768886452874
1.20533e-05	0.00028035168098116883
1.20535e-05	0.00027095901261100694
1.20538e-05	0.00026246338137131956
1.20540e-05	0.00025396775013168974
1.20543e-05	0.0002456516376658472
1.20545e-05	0.00023838571117189454
1.20548e-05	0.0002311197846779911
1.20550e-05	0.00022403081072470293
1.20553e-05	0.00021797701026288912
1.20555e-05	0.00021192320980111635
1.20558e-05	0.0002059758117113823
1.20560e-05	0.0002006508681769733
1.20562e-05	0.00019532592464260038
1.20565e-05	0.00019013183279945045
1.20568e-05	0.00018570322418480953
1.20570e-05	0.0001812746155701986
1.20573e-05	0.0001767558517286014
1.20575e-05	0.0001717096792342222
1.20578e-05	0.00016666350673984304
1.20580e-05	0.00016144171049530418
1.20583e-05	0.00015519251419176148
1.20585e-05	0.00014884547918636923
1.20588e-05	0.00014192608715107337
1.20590e-05	0.00013488170915089038
1.20593e-05	0.00012710616245904428
1.20595e-05	0.00011917650369323113
1.20598e-05	0.00011024534967429451
1.20600e-05	0.00010064094034627884
1.20603e-05	9.044085196933874e-05
1.20605e-05	7.972265761686752e-05
1.20608e-05	6.856202740920385e-05
1.20610e-05	5.7009764803952695e-05
1.20613e-05	4.502376400467765e-05
1.20615e-05	3.250448007461809e-05
1.20618e-05	1.943890990818157e-05
1.20620e-05	5.900762173548803e-06
1.20623e-05	-8.023601512095276e-06
1.20625e-05	-2.224783150767513e-05
1.20628e-05	-3.669619347267917e-05
1.20630e-05	-5.1325954171560164e-05
1.20633e-05	-6.600527914312184e-05
1.20635e-05	-8.097455542683429e-05
1.20638e-05	-9.594383171054672e-05
1.20640e-05	-0.00011089785009511585
1.20643e-05	-0.00012576260967301974
1.20645e-05	-0.00014062736925092364
1.20647e-05	-0.00015536810307700672
1.20650e-05	-0.0001693832854640905
1.20653e-05	-0.00018339846785117426
1.20655e-05	-0.0001972615074507477
1.20658e-05	-0.00021023451077300628
1.20660e-05	-0.00022303051623492429
1.20663e-05	-0.0002347910830841858
1.20665e-05	-0.0002463186091945045
1.20668e-05	-0.0002564828454951294
1.20670e-05	-0.00026634361197717726
1.20673e-05	-0.0002744290780835447
1.20675e-05	-0.0002821508507421483
1.20678e-05	-0.0002877450144095589
1.20680e-05	-0.0002929656148283796
1.20683e-05	-0.0002960008678586379
1.20685e-05	-0.0002986592861179052
1.20688e-05	-0.0002991132185615373
1.20690e-05	-0.0002991780459007454
1.20693e-05	-0.00029696660589539816
1.20695e-05	-0.0002943601720452847
1.20698e-05	-0.000289443021681942
1.20700e-05	-0.0002841565461786019
1.20703e-05	-0.00027670951624904426
1.20705e-05	-0.0002689229554014829
1.20708e-05	-0.0002591501365166706
1.20710e-05	-0.00024906193543547747
1.20713e-05	-0.00023712874649181945
1.20715e-05	-0.00022490833275035042
1.20718e-05	-0.00021100765210833525
1.20720e-05	-0.00019686765853912185
1.20723e-05	-0.0001813276828186641
1.20725e-05	-0.00016559888502127115
1.20728e-05	-0.00014876547686765526
1.20730e-05	-0.00013179019935679936
1.20732e-05	-0.00011398498520052335
1.20735e-05	-9.60770604648091e-05
1.20738e-05	-7.75682781843553e-05
1.20740e-05	-5.905949590402693e-05
1.20743e-05	-4.053892994680259e-05
1.20745e-05	-2.194942940523665e-05
1.20748e-05	-3.4003436968556765e-06
1.20750e-05	1.4865242202615701e-05
1.20753e-05	3.279367745403995e-05
1.20755e-05	5.028292630632462e-05
1.20758e-05	6.721979425830245e-05
1.20760e-05	8.348279442037068e-05
1.20763e-05	9.894938830082364e-05
1.20765e-05	0.00011349705817366864
1.20768e-05	0.00012702211849211135
1.20770e-05	0.00013966904505601546
1.20773e-05	0.00015250776084335267
1.20775e-05	0.0001671719470372573
1.20778e-05	0.00018441776993645067
1.20780e-05	0.0002041291738945817
1.20783e-05	0.0002260629882296444
1.20785e-05	0.00024997608803933267
1.20788e-05	0.00027563717561219126
1.20790e-05	0.0003029703514770863
1.20793e-05	0.00033247947786046593
1.20795e-05	0.0003650213839251549
1.20798e-05	0.00040090322584737
1.20800e-05	0.0004398857820496844
1.20803e-05	0.00048165022856660794
1.20805e-05	0.0005260181267092238
1.20808e-05	0.0005730780310275267
1.20810e-05	0.0006207524632147569
1.20813e-05	0.0006720218873626609
1.20815e-05	0.0007240008749816535
1.20817e-05	0.0007801308134384343
1.20820e-05	0.0008368928128589768
1.20823e-05	0.0008973523729527572
1.20825e-05	0.0009578119330461279
1.20828e-05	0.0010187681685919618
1.20830e-05	0.0010826299587051128
1.20833e-05	0.001146491748818264
1.20835e-05	0.0012103535389309823
1.20838e-05	0.0012742153290441333
1.20840e-05	0.0013379666895554307
1.20843e-05	0.001401072036189987
1.20845e-05	0.001464177382824971
1.20848e-05	0.0015272827294599551
1.20850e-05	0.0015903880760945114
1.20853e-05	0.001652630016129394
1.20855e-05	0.0017098210220373468
1.20858e-05	0.001767012027944912
1.20860e-05	0.0018230481836075728
1.20863e-05	0.0018723284579565272
1.20865e-05	0.0019216087323051477
1.20868e-05	0.001968793590881855
1.20870e-05	0.002003720253801898
1.20873e-05	0.0020386469167217045
1.20875e-05	0.0020735735796417474
1.20878e-05	0.0021085002425617902
1.20880e-05	0.0021434269054815963
1.20883e-05	0.002178353568401639
1.20885e-05	0.002213280231321682
1.20888e-05	0.0022463472589311184
1.20890e-05	0.0022685354080908926
1.20893e-05	0.0022907235572506668
1.20895e-05	0.0023129117064102905
1.20898e-05	0.0023350998555700647
1.20900e-05	0.002357288004729839
1.20902e-05	0.002379476153889463
1.20905e-05	0.002401664303049237
1.20908e-05	0.002422428570938296
1.20910e-05	0.0024348631242931905
1.20913e-05	0.002447297677648169
1.20915e-05	0.0024597322310031477
1.20918e-05	0.0024721667843581262
1.20920e-05	0.0024846013377130207
1.20923e-05	0.002497035891067999
1.20925e-05	0.0025094704444229778
1.20928e-05	0.002521904997777872
1.20930e-05	0.0025343395511328508
1.20933e-05	0.0025467741044878293
1.20935e-05	0.0025592086578427233
1.20938e-05	0.002570725692201065
1.20940e-05	0.0025768752345638082
1.20943e-05	0.0025830247769265094
1.20945e-05	0.0025891743192892527
1.20948e-05	0.002595323861651996
1.20950e-05	0.002601473404014697
1.20953e-05	0.0026076229463774404
1.20955e-05	0.0026137724887401836
1.20958e-05	0.002619922031102885
1.20960e-05	0.002626071573465628
1.20963e-05	0.002632221115828371
1.20965e-05	0.0026383706581910725
1.20968e-05	0.0026437676739214703
1.20970e-05	0.0026447624040413765
1.20973e-05	0.0026457571341612757
1.20975e-05	0.002644655495378238
1.20978e-05	0.002631290085109871
1.20980e-05	0.0026179246748415947
1.20983e-05	0.0026024199211783726
1.20985e-05	0.0025743999949780624
1.20987e-05	0.0025463800687779417
1.20990e-05	0.002516526702107245
1.20993e-05	0.0024759476969627085
1.20995e-05	0.0024334956475157744
1.20998e-05	0.002380086276922048
1.21000e-05	0.002324986948316367
1.21003e-05	0.002260001354535492
1.21005e-05	0.0021932718325370615
1.21008e-05	0.0021163403193120225
1.21010e-05	0.002039408806086984
1.21013e-05	0.0019607500508251035
1.21015e-05	0.0018719869185993816
1.21018e-05	0.0017817057518215414
1.21020e-05	0.0016825440732074976
1.21023e-05	0.0015833823945927818
1.21025e-05	0.0014830695649616264
1.21028e-05	0.0013760224945236885
1.21030e-05	0.0012689754240850252
1.21033e-05	0.0011612330574127694
1.21035e-05	0.0010494232033282805
1.21038e-05	0.0009376133492430337
1.21040e-05	0.0008257615431937534
1.21043e-05	0.0007136643178873364
1.21045e-05	0.0006015670925801599
1.21048e-05	0.0004898968703437892
1.21050e-05	0.0003810707033873199
1.21053e-05	0.0002746619965655657
1.21055e-05	0.00017101703232838547
1.21058e-05	7.066224222178192e-05
1.21060e-05	-2.570244145454206e-05
1.21063e-05	-0.00011735220267293408
1.21065e-05	-0.00020356232302055268
1.21068e-05	-0.00028361925984055856
1.21070e-05	-0.0003569630892883995
1.21072e-05	-0.00042364786091136865
1.21075e-05	-0.00048424492266726805
1.21078e-05	-0.0005390066254394733
1.21080e-05	-0.000587751148262709
1.21083e-05	-0.0006302271419603228
1.21085e-05	-0.0006661832331368749
1.21088e-05	-0.0006953751569482669
1.21090e-05	-0.0007176548751156646
1.21093e-05	-0.0007332589962016809
1.21095e-05	-0.0007427480506581034
1.21098e-05	-0.0007464827310079728
1.21100e-05	-0.0007445518931645946
1.21103e-05	-0.0007370006480651087
1.21105e-05	-0.0007238741576317006
1.21108e-05	-0.0007052221987572867
1.21110e-05	-0.0006811545897216548
1.21113e-05	-0.000652022187150564
1.21115e-05	-0.0006183787808693822
1.21118e-05	-0.0005806528383464521
1.21120e-05	-0.0005391026257033333
1.21123e-05	-0.000493958853889487
1.21125e-05	-0.0004454524284473043
1.21128e-05	-0.00039381695774908567
1.21130e-05	-0.00033932379462979826
1.21133e-05	-0.00028239522948712045
1.21135e-05	-0.00022358053902957835
1.21138e-05	-0.00016335056111198678
1.21140e-05	-0.0001020694049442035
1.21143e-05	-4.008401152718161e-05
1.21145e-05	2.2258677375953034e-05
1.21148e-05	8.461000959471239e-05
1.21150e-05	0.00014659772157117306
1.21153e-05	0.00020775504546965474
1.21155e-05	0.0002675356755127404
1.21158e-05	0.00032544249256061806
1.21160e-05	0.0003810452817723798
1.21163e-05	0.0004339246151007277
1.21165e-05	0.0004836610111767938
1.21168e-05	0.0005298395230903463
1.21170e-05	0.0005721077890318449
1.21173e-05	0.0006103719414598934
1.21175e-05	0.0006447809762756503
1.21178e-05	0.0006753967750454465
1.21180e-05	0.0007021241368070882
1.21183e-05	0.0007248411250082924
1.21185e-05	0.0007434258613048561
1.21188e-05	0.0007577592957320238
1.21190e-05	0.000767761661679378
1.21193e-05	0.0007735150310737508
1.21195e-05	0.0007752536162532918
1.21198e-05	0.0007731570702926587
1.21200e-05	0.0007670413701347385
1.21203e-05	0.000756215007139271
1.21205e-05	0.0007443472675757384
1.21208e-05	0.0007263874684238708
1.21210e-05	0.0007074674307083792
1.21213e-05	0.0006829299912504732
1.21215e-05	0.0006575808233513465
1.21218e-05	0.0006274830388768544
1.21220e-05	0.000596688058987032
1.21223e-05	0.0005618144814537422
1.21225e-05	0.000526350081843661
1.21228e-05	0.0004874293693030673
1.21230e-05	0.00044805086031000273
1.21233e-05	0.00040599423914126264
1.21235e-05	0.000363616684456848
1.21238e-05	0.00031936166664945124
1.21240e-05	0.0002751066488420545
1.21243e-05	0.0002307526338462695
1.21245e-05	0.00018581948466263483
1.21248e-05	0.00014093894007229907
1.21250e-05	9.645723980910445e-05
1.21253e-05	5.2649733422395506e-05
1.21255e-05	9.858047185969131e-06
1.21258e-05	-3.158969429236652e-05
1.21260e-05	-7.138957439491816e-05
1.21263e-05	-0.00010924182427926533
1.21265e-05	-0.00014484670647643455
1.21268e-05	-0.00017791238630211932
1.21270e-05	-0.0002082539076359843
1.21273e-05	-0.00023610063165568562
1.21275e-05	-0.00026198880826530153
1.21278e-05	-0.0002861620020573235
1.21280e-05	-0.00030852833978852086
1.21283e-05	-0.00032894466396548097
1.21285e-05	-0.00034726784619901565
1.21288e-05	-0.0003633597242280861
1.21290e-05	-0.00037714905141525087
1.21293e-05	-0.00038882413673181274
1.21295e-05	-0.00039876553848946784
1.21298e-05	-0.0004070544582156763
1.21300e-05	-0.00041334763768299674
1.21303e-05	-0.00041916400762975677
1.21305e-05	-0.0004221910388278905
1.21308e-05	-0.00042473305833144135
1.21310e-05	-0.00042443775631571107
1.21313e-05	-0.00042376550481440793
1.21315e-05	-0.0004208880964086323
1.21318e-05	-0.00041770707797709095
1.21320e-05	-0.00041274993895073413
1.21323e-05	-0.0004074299824241924
1.21325e-05	-0.0003999875411985196
1.21328e-05	-0.0003925450999728973
1.21330e-05	-0.0003847630775536526
1.21333e-05	-0.00037499450297744856
1.21335e-05	-0.00036522592840131075
1.21338e-05	-0.000355273810442081
1.21340e-05	-0.0003442479625167421
1.21343e-05	-0.0003332221145914032
1.21345e-05	-0.000322196266666139
1.21348e-05	-0.0003111298911636879
1.21350e-05	-0.00029982642907557986
1.21353e-05	-0.0002885229669875484
1.21355e-05	-0.00027721950489944033
1.21358e-05	-0.00026606138975397725
1.21360e-05	-0.00025575355515394864
1.21363e-05	-0.00024556643123326076
1.21365e-05	-0.00023618126168461023
1.21368e-05	-0.00022744535802457917
1.21370e-05	-0.0002191763878554085
1.21373e-05	-0.00021028970133876612
1.21375e-05	-0.00019916008501955074
1.21378e-05	-0.00018503450848495338
1.21380e-05	-0.00016801954548106314
1.21383e-05	-0.0001483465487294237
1.21385e-05	-0.00012624690504725358
1.21388e-05	-0.00010194043243726474
1.21390e-05	-7.549494263803236e-05
1.21393e-05	-4.6413073479474354e-05
1.21395e-05	-1.3858927321450743e-05
1.21398e-05	2.2456980687832313e-05
1.21400e-05	6.228571483782007e-05
1.21403e-05	0.00010530014989292568
1.21405e-05	0.0001511731774530801
1.21408e-05	0.000199584976687667
1.21410e-05	0.0002503109371420803
1.21413e-05	0.0003034804808528121
1.21415e-05	0.0003594350352046
1.21418e-05	0.000418328164767151
1.21420e-05	0.0004802618435744221
1.21423e-05	0.0005427001865789049
1.21425e-05	0.0006080908183682465
1.21427e-05	0.0006739426937454814
1.21430e-05	0.0007424928470704829
1.21433e-05	0.0008110430003954842
1.21435e-05	0.0008795931537204856
1.21438e-05	0.0009481433070450225
1.21440e-05	0.0010169324123980215
1.21443e-05	0.0010858524689406099
1.21445e-05	0.0011547725254827316
1.21448e-05	0.00122369258202532
1.21450e-05	0.0012918849084719724
1.21453e-05	0.0013558200091933555
1.21455e-05	0.0014197551099151718
1.21458e-05	0.0014826273539055477
1.21460e-05	0.0015392818792050308
1.21463e-05	0.0015959364045048977
1.21465e-05	0.0016509721975129683
1.21468e-05	0.0016965383962391546
1.21470e-05	0.0017421045949656496
1.21473e-05	0.0017858707539119144
1.21475e-05	0.0018191066686064554
1.21478e-05	0.0018523425833012217
1.21480e-05	0.0018837352741200796
1.21483e-05	0.001904345093450215
1.21485e-05	0.00192495491278049
1.21488e-05	0.0019436028836822515
1.21490e-05	0.001950774028701667
1.21493e-05	0.0019579451737211317
1.21495e-05	0.001963322402797189
1.21498e-05	0.00195820521210588
1.21500e-05	0.0019530880214145363
1.21503e-05	0.0019462992952101613
1.21505e-05	0.001929732075540616
1.21508e-05	0.0019131648558709583
1.21510e-05	0.001895097828705976
1.21512e-05	0.0018682569180802034
1.21515e-05	0.001841416007454249
1.21518e-05	0.0018133898200118675
1.21520e-05	0.001778429755595737
1.21523e-05	0.0017434696911798435
1.21525e-05	0.001707328948361125
1.21528e-05	0.0016642812293187156
1.21530e-05	0.0016212335102765976
1.21533e-05	0.0015781857912341882
1.21535e-05	0.0015351380721917785
1.21538e-05	0.0014920903531496607
1.21540e-05	0.0014468177315209744
1.21543e-05	0.0014003258122662595
1.21545e-05	0.0013538338930118598
1.21548e-05	0.001307341973757145
1.21550e-05	0.0012608500545024303
1.21553e-05	0.0012148144694925117
1.21555e-05	0.001171448442738331
1.21558e-05	0.0011280824159841504
1.21560e-05	0.0010855810908405043
1.21563e-05	0.0010481382756608781
1.21565e-05	0.0010106954604812521
1.21568e-05	0.000974252967802565
1.21570e-05	0.000943662368166949
1.21573e-05	0.000913889989031001
1.21575e-05	0.0008889042050649121
1.21578e-05	0.0008647262789448484
1.21580e-05	0.000845274326405464
1.21583e-05	0.0008266847131822316
1.21585e-05	0.0008131397904876678
1.21588e-05	0.0008004991208344735
1.21590e-05	0.0007931483372722107
1.21593e-05	0.0007866396945616204
1.21595e-05	0.0007850575812341565
1.21597e-05	0.0007842538140715348
1.21600e-05	0.0007880033769646104
1.21603e-05	0.0007925080964520531
1.21605e-05	0.0008014304868590345
1.21608e-05	0.0008110769926360438
1.21610e-05	0.0008249595779715667
1.21613e-05	0.0008396057536312899
1.21615e-05	0.0008587189375840283
1.21618e-05	0.0008778321215368963
1.21620e-05	0.0008976873689132579
1.21623e-05	0.0009218836920756596
1.21625e-05	0.0009460800152382251
1.21628e-05	0.0009709755231221015
1.21630e-05	0.0009999612661094619
1.21633e-05	0.0010289470090970188
1.21635e-05	0.0010579327520845757
1.21638e-05	0.0010869184950719362
1.21640e-05	0.0011159042380594932
1.21643e-05	0.0011457430244500707
1.21645e-05	0.0011760492981825385
1.21648e-05	0.0012063555719152115
1.21650e-05	0.0012366618456478844
1.21653e-05	0.0012669681193803522
1.21655e-05	0.0012965041055024416
1.21658e-05	0.0013215339041616272
1.21660e-05	0.001346563702820643
1.21663e-05	0.0013715935014798287
1.21665e-05	0.0013966233001390142
1.21668e-05	0.0014216530987980302
1.21670e-05	0.0014446680786920876
1.21673e-05	0.0014558963558848619
1.21675e-05	0.0014671246330775598
1.21678e-05	0.001478352910270334
1.21680e-05	0.0014895811874631082
1.21682e-05	0.0015008094646558063
1.21685e-05	0.0015100469312427538
1.21688e-05	0.0015076381430137145
1.21690e-05	0.0015052293547846755
1.21693e-05	0.001501414961911805
1.21695e-05	0.0014893777728553017
1.21698e-05	0.0014773405837987985
1.21700e-05	0.001463975451225169
1.21703e-05	0.0014428418405568872
1.21705e-05	0.0014217082298886054
1.21708e-05	0.0013994080594786045
1.21710e-05	0.0013702835070945856
1.21713e-05	0.0013411589547105667
1.21715e-05	0.0013110060396222146
1.21718e-05	0.0012748371961144478
1.21720e-05	0.0012386683526066811
1.21723e-05	0.0012015548701763221
1.21725e-05	0.0011589152439862558
1.21728e-05	0.0011162756177961895
1.21730e-05	0.001073635991606412
1.21733e-05	0.0010309963654163458
1.21735e-05	0.0009878476376561202
1.21738e-05	0.0009417206624441866
1.21740e-05	0.0008955936872319405
1.21743e-05	0.0008494667120196943
1.21745e-05	0.0008033397368077607
1.21748e-05	0.0007574379505378186
1.21750e-05	0.0007128535210253974
1.21753e-05	0.0006682690915132782
1.21755e-05	0.0006241393030615205
1.21758e-05	0.0005826691677322293
1.21760e-05	0.0005417613263783079
1.21763e-05	0.0005041429083869827
1.21765e-05	0.0004670567840854434
1.21767e-05	0.0004335020317927119
1.21770e-05	0.0004028775085298858
1.21773e-05	0.00037567693124330076
1.21775e-05	0.00035240969921626755
1.21778e-05	0.0003333176170893186
1.21780e-05	0.00031843516568276205
1.21783e-05	0.00030776986164515345
1.21785e-05	0.000301329097349536
1.21788e-05	0.0002991225254933002
1.21790e-05	0.0003011873399086625
1.21793e-05	0.00030765043159132574
1.21795e-05	0.0003186484655669835
1.21798e-05	0.0003341504679451469
1.21800e-05	0.0003539956649200225
1.21803e-05	0.00037800624483408715
1.21805e-05	0.0004060044663458808
1.21808e-05	0.00043781397383722733
1.21810e-05	0.00047327564115117734
1.21813e-05	0.0005122865743469187
1.21815e-05	0.0005547499717618876
1.21818e-05	0.0006006623161212697
1.21820e-05	0.000650305709261556
1.21823e-05	0.0007006565500015988
1.21825e-05	0.0007551459637435748
1.21828e-05	0.000810280836109226
1.21830e-05	0.0008691916455661289
1.21833e-05	0.000928102455023431
1.21835e-05	0.0009874782304282032
1.21838e-05	0.0010495740596099833
1.21840e-05	0.0011116698887921842
1.21843e-05	0.0011737657179743852
1.21845e-05	0.0012358615471561654
1.21848e-05	0.0012963203832346557
1.21850e-05	0.0013558821095613995
1.21852e-05	0.0014154438358877398
1.21855e-05	0.0014750055622144835
1.21858e-05	0.001533460426294659
1.21860e-05	0.0015854401391261362
1.21863e-05	0.0016374198519572614
1.21865e-05	0.001688190897297082
1.21868e-05	0.0017318912300504422
1.21870e-05	0.0017741766930960967
1.21873e-05	0.00180818515926906
1.21875e-05	0.0018403416803418717
1.21878e-05	0.0018616643106876209
1.21880e-05	0.00188109556771532
1.21883e-05	0.0018894622786873893
1.21885e-05	0.0018959556734453678
1.21888e-05	0.0018914901563230543
1.21890e-05	0.0018850676739826833
1.21893e-05	0.0018671969325520738
1.21895e-05	0.0018472667635211944
1.21898e-05	0.0018152889298068582
1.21900e-05	0.0017813983091733816
1.21903e-05	0.001736317872779763
1.21905e-05	0.0016895072938888228
1.21908e-05	0.0016325753702799816
1.21910e-05	0.0015740322091422224
1.21913e-05	0.0015060632981165492
1.21915e-05	0.0014365902940458618
1.21918e-05	0.0013583183360002004
1.21920e-05	0.0012788054172795972
1.21923e-05	0.0011920328706423817
1.21925e-05	0.0011043050394636648
1.21928e-05	0.0010109887875859695
1.21930e-05	0.0009168317459545848
1.21933e-05	0.0008177560788601455
1.21935e-05	0.0007186804117657062
1.21937e-05	0.0006191732329917322
1.21940e-05	0.000517141708116531
1.21943e-05	0.00041511018324132966
1.21945e-05	0.0003130786583661284
1.21948e-05	0.000211315069370449
1.21950e-05	0.00011139026898291646
1.21953e-05	1.3395276594934796e-05
