Time(s)	Current(A)
1.10000e-05	-0.00206382029747527
1.10003e-05	-0.001997414786014522
1.10005e-05	-0.0019371236608604562
1.10008e-05	-0.001882135964866451
1.10010e-05	-0.0018308777215964602
1.10013e-05	-0.001783045393239313
1.10015e-05	-0.0017388315523851209
1.10018e-05	-0.0016985216215971053
1.10020e-05	-0.0016641293728616796
1.10023e-05	-0.0016312964104008636
1.10025e-05	-0.0016036120830391987
1.10028e-05	-0.001580454332287521
1.10030e-05	-0.0015606052359762907
1.10033e-05	-0.001544962329012446
1.10035e-05	-0.0015304034870724304
1.10038e-05	-0.0015206834583119362
1.10040e-05	-0.0015124818824739346
1.10043e-05	-0.0015093178701558003
1.10045e-05	-0.0015077346799866095
1.10047e-05	-0.0015103172721408886
1.10050e-05	-0.001514207115496766
1.10053e-05	-0.0015212670843774252
1.10055e-05	-0.0015293218604946035
1.10058e-05	-0.001540398917757229
1.10060e-05	-0.0015524243876713078
1.10062e-05	-0.0015673317375205689
1.10065e-05	-0.0015831434411540859
1.10068e-05	-0.0016010260737130573
1.10070e-05	-0.0016195585780406526
1.10073e-05	-0.0016392738374029605
1.10075e-05	-0.0016593602534463016
1.10078e-05	-0.0016802721524012813
1.10080e-05	-0.0017014430935826188
1.10083e-05	-0.0017230869418378841
1.10085e-05	-0.0017448791915919554
1.10088e-05	-0.0017663721196117157
1.10090e-05	-0.0017877711184086556
1.10093e-05	-0.0018080499645405789
1.10095e-05	-0.0018279772990465084
1.10098e-05	-0.001843881024622545
1.10100e-05	-0.0018585221139874313
1.10103e-05	-0.0018731632033522183
1.10105e-05	-0.0018878042927171045
1.10108e-05	-0.0019024453820819908
1.10110e-05	-0.001917086471446778
1.10113e-05	-0.0019317275608116643
1.10115e-05	-0.0019399325746527593
1.10118e-05	-0.0019461179036397512
1.10120e-05	-0.001952303232626785
1.10123e-05	-0.0019584885616138192
1.10125e-05	-0.001964673890600811
1.10128e-05	-0.001970859219587845
1.10130e-05	-0.001977044548574879
1.10132e-05	-0.0019769940617126685
1.10135e-05	-0.001974986732862284
1.10138e-05	-0.001972979404011899
1.10140e-05	-0.001970972075161528
1.10143e-05	-0.0019689647463111432
1.10145e-05	-0.0019669574174607588
1.10147e-05	-0.0019649500886103873
1.10150e-05	-0.001962942759760003
1.10153e-05	-0.001959353548047635
1.10155e-05	-0.0019512887739086663
1.10158e-05	-0.001943223999769752
1.10160e-05	-0.001935159225630783
1.10163e-05	-0.001927094451491814
1.10165e-05	-0.0019190296773528997
1.10168e-05	-0.0019109649032139308
1.10170e-05	-0.0019029001290749618
1.10173e-05	-0.0018948353549360477
1.10175e-05	-0.001885402710807648
1.10178e-05	-0.0018755408196497229
1.10180e-05	-0.0018656789284918645
1.10183e-05	-0.001855787028365922
1.10185e-05	-0.001845885711219005
1.10188e-05	-0.0018359843940721548
1.10190e-05	-0.0018265425035924809
1.10193e-05	-0.0018172447843671936
1.10195e-05	-0.0018082206786115187
1.10198e-05	-0.0017999706972826738
1.10200e-05	-0.0017917207159538287
1.10203e-05	-0.0017842016538436674
1.10205e-05	-0.0017771761031201033
1.10208e-05	-0.0017699263232323138
1.10210e-05	-0.001761319391781224
1.10213e-05	-0.0017523168203213643
1.10215e-05	-0.0017413641828271957
1.10217e-05	-0.001729799601172308
1.10220e-05	-0.0017182350195173422
1.10223e-05	-0.0017051722785314761
1.10225e-05	-0.001691639404822813
1.10228e-05	-0.0016757643400213413
1.10230e-05	-0.001659154279513289
1.10232e-05	-0.001642544219005349
1.10235e-05	-0.0016228854422870656
1.10238e-05	-0.0016022699574111282
1.10240e-05	-0.001581654472535191
1.10243e-05	-0.0015588053575528796
1.10245e-05	-0.001535255314049436
1.10248e-05	-0.0015117052705459929
1.10250e-05	-0.0014861023153129867
1.10253e-05	-0.0014598551422309032
1.10255e-05	-0.001432208741942349
1.10258e-05	-0.0014041232545134866
1.10260e-05	-0.0013753155581460363
1.10263e-05	-0.0013459740196872984
1.10265e-05	-0.0013163037440460956
1.10268e-05	-0.0012863065181872699
1.10270e-05	-0.0012559703902696301
1.10273e-05	-0.0012253906859541841
1.10275e-05	-0.0011947385365264124
1.10278e-05	-0.0011641987209084243
1.10280e-05	-0.0011339562560436364
1.10283e-05	-0.0011041957992475534
1.10285e-05	-0.0010750671340157294
1.10288e-05	-0.0010466485351635507
1.10290e-05	-0.0010190097139700265
1.10293e-05	-0.0009922874614355533
1.10295e-05	-0.0009671760256914516
1.10298e-05	-0.0009424985677050521
1.10300e-05	-0.0009194977500449538
1.10302e-05	-0.0008983353309927638
1.10305e-05	-0.000878708227143502
1.10308e-05	-0.0008597764317758656
1.10310e-05	-0.0008405880513190783
1.10313e-05	-0.0008208060258877632
1.10315e-05	-0.0008005384049692252
1.10317e-05	-0.0007799510623116887
1.10320e-05	-0.0007592963939786798
1.10323e-05	-0.0007387297145390858
1.10325e-05	-0.0007181906466206511
1.10328e-05	-0.0006968613843879109
1.10330e-05	-0.000675284153733254
1.10333e-05	-0.000652153626699619
1.10335e-05	-0.0006285356645573264
1.10338e-05	-0.0006037055512923456
1.10340e-05	-0.000578495056651131
1.10343e-05	-0.0005532845620100873
1.10345e-05	-0.0005270189833621472
1.10348e-05	-0.0005004223120813856
1.10350e-05	-0.00047382564080080433
1.10353e-05	-0.0004457956425562839
1.10355e-05	-0.0004173158564322035
1.10358e-05	-0.0003882726268279769
1.10360e-05	-0.0003588655308447184
1.10363e-05	-0.00032935374789584476
1.10365e-05	-0.0002998404483326
1.10368e-05	-0.00027025754515542155
1.10370e-05	-0.00024050948762466395
1.10373e-05	-0.0002106518619956776
1.10375e-05	-0.0001808496456792158
1.10378e-05	-0.0001512877893934294
1.10380e-05	-0.0001221511891245736
1.10383e-05	-9.362453312269497e-05
1.10385e-05	-6.584094750868607e-05
1.10387e-05	-3.8826281804108515e-05
1.10390e-05	-1.2589165404132137e-05
1.10393e-05	1.27670814902792e-05
1.10395e-05	3.7070633830078133e-05
1.10398e-05	6.013717018687972e-05
1.10400e-05	8.178240274254607e-05
1.10402e-05	0.0001018217981326505
1.10405e-05	0.00012000076440278441
1.10408e-05	0.00013594434367236014
1.10410e-05	0.0001493236103262914
1.10413e-05	0.00016000418098608622
1.10415e-05	0.00016797000890656335
1.10418e-05	0.00017322539037831737
1.10420e-05	0.0001757746625209487
1.10423e-05	0.00017562202129110612
1.10425e-05	0.00017272777460392464
1.10428e-05	0.00016697683452963647
1.10430e-05	0.00015828299600923268
1.10433e-05	0.00014668189506674835
1.10435e-05	0.00013228329167448515
1.10438e-05	0.00011520969840654931
1.10440e-05	9.558364445154876e-05
1.10443e-05	7.352755898844278e-05
1.10445e-05	4.913636933709842e-05
1.10448e-05	2.2457801925885978e-05
1.10450e-05	-6.4423551453996e-06
1.10453e-05	-3.742198364058618e-05
1.10455e-05	-7.029254296086992e-05
1.10458e-05	-0.00010485751862635394
1.10460e-05	-0.00014092040169591451
1.10463e-05	-0.00017828474489382044
1.10465e-05	-0.0002171286036440075
1.10468e-05	-0.00025634271189969935
1.10470e-05	-0.0002967108879750341
1.10472e-05	-0.0003374412184857544
1.10475e-05	-0.00037863920597777195
1.10478e-05	-0.00041998394745354034
1.10480e-05	-0.00046105726800344893
1.10483e-05	-0.0005020454147965462
1.10485e-05	-0.0005420524366931796
1.10487e-05	-0.0005817515748350791
1.10490e-05	-0.0006197902216702149
1.10493e-05	-0.0006573077948890076
1.10495e-05	-0.0006923708944449593
1.10498e-05	-0.0007266637632489135
1.10500e-05	-0.000757675922301149
1.10503e-05	-0.0007876585720223543
1.10505e-05	-0.0008150218907430272
1.10508e-05	-0.0008406529634683523
1.10510e-05	-0.0008657774365333338
1.10513e-05	-0.0008908325749274005
1.10515e-05	-0.0009151341958144423
1.10518e-05	-0.0009391993577144162
1.10520e-05	-0.0009632645196142271
1.10523e-05	-0.000985676529999107
1.10525e-05	-0.0010075697700448632
1.10528e-05	-0.0010294630100904708
1.10530e-05	-0.001051451637894275
1.10533e-05	-0.0010734701990339779
1.10535e-05	-0.0010954887601735315
1.10538e-05	-0.0011174474043065359
1.10540e-05	-0.0011392365274776781
1.10543e-05	-0.0011610256506486727
1.10545e-05	-0.0011828147738198148
1.10548e-05	-0.0012046074582351917
1.10550e-05	-0.0012264012601934061
1.10553e-05	-0.0012481950621517684
1.10555e-05	-0.0012699888641101308
1.10557e-05	-0.0012917826660683452
1.10560e-05	-0.0013135764680267076
1.10563e-05	-0.00133537026998507
1.10565e-05	-0.0013568762832695742
1.10568e-05	-0.0013775680667474368
1.10570e-05	-0.0013982598502252995
1.10572e-05	-0.001418951633703022
1.10575e-05	-0.0014396434171808847
1.10578e-05	-0.0014603352006587473
1.10580e-05	-0.00148102698413661
1.10583e-05	-0.0015017187676143325
1.10585e-05	-0.0015206219693409053
1.10588e-05	-0.0015389639017866698
1.10590e-05	-0.001556896642248948
1.10593e-05	-0.0015736716710290505
1.10595e-05	-0.0015904466998091533
1.10598e-05	-0.0016061384461951368
1.10600e-05	-0.0016207228071867363
1.10603e-05	-0.0016342044377141058
1.10605e-05	-0.0016469991346406926
1.10608e-05	-0.0016606257038728216
1.10610e-05	-0.0016767270280098174
1.10613e-05	-0.0016958994166187838
1.10615e-05	-0.0017189845631288138
1.10618e-05	-0.0017430622784809914
1.10620e-05	-0.0017706564039434126
1.10623e-05	-0.0017993540031346312
1.10625e-05	-0.0018316993755122355
1.10628e-05	-0.0018651894442568765
1.10630e-05	-0.0019057652771940952
1.10633e-05	-0.0019485646717718368
1.10635e-05	-0.0019913640663492887
1.10638e-05	-0.0020414262219114005
1.10640e-05	-0.002093767481927365
1.10642e-05	-0.002146108741942975
1.10645e-05	-0.002204352080720867
1.10648e-05	-0.00226444753249308
1.10650e-05	-0.002324542984264886
1.10653e-05	-0.002389949314500223
1.10655e-05	-0.002457022235001455
1.10657e-05	-0.0025275810988305007
1.10660e-05	-0.002599233875702619
1.10663e-05	-0.0026708866525747372
1.10665e-05	-0.0027448460439617574
1.10668e-05	-0.0028195292668809543
1.10670e-05	-0.002894212489800657
1.10673e-05	-0.002970063492806856
1.10675e-05	-0.003046280953252399
1.10678e-05	-0.0031219542648623475
1.10680e-05	-0.003197456818817068
1.10683e-05	-0.0032710387692828206
1.10685e-05	-0.0033440180211369423
1.10688e-05	-0.0034142251354991908
1.10690e-05	-0.0034835623340094867
1.10693e-05	-0.003549187783522457
1.10695e-05	-0.0036136484606172146
1.10698e-05	-0.003671340609071731
1.10700e-05	-0.0037269087465883087
1.10703e-05	-0.003782476884104887
1.10705e-05	-0.003827658728763316
1.10708e-05	-0.003869581283137057
1.10710e-05	-0.003911503837510798
1.10713e-05	-0.003949895857401795
1.10715e-05	-0.003978299067190254
1.10718e-05	-0.0040067022769787125
1.10720e-05	-0.004035105486766979
1.10723e-05	-0.00405303588740428
1.10725e-05	-0.004067679848347105
1.10727e-05	-0.00408232380928983
1.10730e-05	-0.004088447468086133
1.10733e-05	-0.004091897397343382
1.10735e-05	-0.004095347326600609
1.10738e-05	-0.004092216017440749
1.10740e-05	-0.004087019470305038
1.10742e-05	-0.004076609337561592
1.10745e-05	-0.004064563145720187
1.10748e-05	-0.0040479916842063295
1.10750e-05	-0.0040300001618793855
1.10753e-05	-0.004009194944365737
1.10755e-05	-0.003986354496425525
1.10758e-05	-0.0039631524571241295
1.10760e-05	-0.003951684037708717
1.10763e-05	-0.003915396771211458
1.10765e-05	-0.03337987149170167
1.10768e-05	-0.028028423477878883
1.10770e-05	-0.02154842206966259
1.10773e-05	-0.01678870254373581
1.10775e-05	0.0070619739017932885
1.10778e-05	0.005045810790574712
1.10780e-05	0.003381604965308325
1.10783e-05	-0.0015716724684646166
1.10785e-05	-0.010440239593204715
1.10788e-05	-0.013670153194721046
1.10790e-05	-0.011295933508392083
1.10793e-05	-0.006527701126952265
1.10795e-05	0.00025287467432461106
1.10798e-05	0.0031426750577377136
1.10800e-05	0.0023429418019436207
1.10803e-05	-0.0009881329869616301
1.10805e-05	-0.006674230956377085
1.10808e-05	-0.00879805520183719
1.10810e-05	-0.007389305763619643
1.10812e-05	-0.0044648354070441175
1.10815e-05	-0.00026824359137202257
1.10818e-05	0.001499576262070599
1.10820e-05	0.0009625287301732084
1.10823e-05	-0.0011554483276993294
1.10825e-05	-0.004745029185632534
1.10827e-05	-0.006100577106215207
1.10830e-05	-0.005241560521397601
1.10833e-05	-0.003431954804078667
1.10835e-05	-0.0008247696024099725
1.10838e-05	0.0002615544954587838
1.10840e-05	-9.539944583921583e-05
1.10843e-05	-0.0014421578053843787
1.10845e-05	-0.0037102239485317426
1.10848e-05	-0.0045784562344808495
1.10850e-05	-0.004059198495245192
1.10853e-05	-0.0029442986749303288
1.10855e-05	-0.0013296458366587845
1.10858e-05	-0.0006674725798191952
1.10860e-05	-0.0009090747319955056
1.10863e-05	-0.0017703016982502568
1.10865e-05	-0.003208163125457234
1.10868e-05	-0.0037686808058248647
1.10870e-05	-0.0034596326290998987
1.10873e-05	-0.002777053077001868
1.10875e-05	-0.001781001441150741
1.10878e-05	-0.0013811042560396571
1.10880e-05	-0.0015467624538906914
1.10883e-05	-0.0020999024267733444
1.10885e-05	-0.003013521987902385
1.10888e-05	-0.0033768207552611553
1.10890e-05	-0.003194681676206937
1.10893e-05	-0.002777815844426719
1.10895e-05	-0.0021638248011685308
1.10897e-05	-0.0019224489664150571
1.10900e-05	-0.0020344479411392733
1.10903e-05	-0.0023882094604222056
1.10905e-05	-0.002967014356582556
1.10908e-05	-0.0032011111773573254
1.10910e-05	-0.003094443707677014
1.10912e-05	-0.0028420052769935486
1.10915e-05	-0.00246734284013649
1.10918e-05	-0.0023272606009310413
1.10920e-05	-0.0024096095816351867
1.10923e-05	-0.0026443826030890013
1.10925e-05	-0.0030210173767977696
1.10928e-05	-0.003182549437983977
1.10930e-05	-0.0031313923663021624
1.10933e-05	-0.0029896275911757897
1.10935e-05	-0.0027719360000895755
1.10938e-05	-0.0027017395567636164
1.10940e-05	-0.002771338072330429
1.10943e-05	-0.00293679233092798
1.10945e-05	-0.0031914008251435677
1.10948e-05	-0.003311486791642531
1.10950e-05	-0.00329849754922409
1.10953e-05	-0.0032288366619667307
1.10955e-05	-0.00311162793665979
1.10958e-05	-0.0030867435453575576
1.10960e-05	-0.003149274910325405
1.10963e-05	-0.0032716149027871796
1.10965e-05	-0.0034494830636141887
1.10968e-05	-0.003542692855573666
1.10970e-05	-0.0035520816044998203
1.10973e-05	-0.003525436111324485
1.10975e-05	-0.003468397475574638
1.10978e-05	-0.0034685027243480373
1.10980e-05	-0.0035225946886653535
1.10983e-05	-0.0036132985881337618
1.10985e-05	-0.00373785263460647
1.10988e-05	-0.0038083673210744544
1.10990e-05	-0.003825294314820719
1.10993e-05	-0.003818493367865043
1.10995e-05	-0.0037914223419438925
1.10997e-05	-0.0037988359327073206
1.11000e-05	-0.003838675589311556
1.11003e-05	-0.0038999774957259817
1.11005e-05	-0.003980588594396929
1.11008e-05	-0.004024336966782541
1.11010e-05	-0.0040303777697646235
1.11013e-05	-0.00401706868885205
1.11015e-05	-0.003986745495637067
1.11018e-05	-0.003973956170818164
1.11020e-05	-0.003977659755744149
1.11023e-05	-0.003991236002451533
1.11025e-05	-0.004013585700617115
1.11028e-05	-0.004009772459908248
1.11030e-05	-0.003979519603086084
1.11033e-05	-0.003934576987463094
1.11035e-05	-0.0038766591603716476
1.11038e-05	-0.003827656075671011
1.11040e-05	-0.0037871642584560777
1.11043e-05	-0.003751285827424724
1.11045e-05	-0.00371958125467254
1.11048e-05	-0.0036704166747822168
1.11050e-05	-0.0036038691614646186
1.11053e-05	-0.003527549685212068
1.11055e-05	-0.0034427824529860832
1.11058e-05	-0.0033635290204282963
1.11060e-05	-0.003289785004494297
1.11063e-05	-0.0032193582242134823
1.11065e-05	-0.0031522218604718823
1.11068e-05	-0.0030750743725866574
1.11070e-05	-0.0029882142061475585
1.11073e-05	-0.002896659128059678
1.11075e-05	-0.002801487881781328
1.11078e-05	-0.002711695385529039
1.11080e-05	-0.00262752773917103
1.11082e-05	-0.002547860582091502
1.11085e-05	-0.002472925903299172
1.11088e-05	-0.0023946406774533087
1.11090e-05	-0.002313441741983614
1.11093e-05	-0.002232721497519821
1.11095e-05	-0.002153404836105016
1.11098e-05	-0.0020813748875889884
1.11100e-05	-0.0020170346027783828
1.11103e-05	-0.0019599280341056416
1.11105e-05	-0.0019104021661430631
1.11108e-05	-0.0018634269914711127
1.11110e-05	-0.0018191115933458024
1.11113e-05	-0.001779340496378789
1.11115e-05	-0.0017444562786705306
1.11118e-05	-0.0017179098867680484
1.11120e-05	-0.0016997193167545067
1.11123e-05	-0.0016893648111003959
1.11125e-05	-0.0016882950370915258
1.11128e-05	-0.001689074961540108
1.11130e-05	-0.001694893567056927
1.11133e-05	-0.001708353799529763
1.11135e-05	-0.0017233432617452672
1.11138e-05	-0.0017465478267603394
1.11140e-05	-0.001777144927928598
1.11143e-05	-0.0018165293089912197
1.11145e-05	-0.0018576919041437957
1.11148e-05	-0.0019038806188298178
1.11150e-05	-0.0019540515388211384
1.11153e-05	-0.0020093717210767233
1.11155e-05	-0.0020657564344657028
1.11158e-05	-0.0021273579957144066
1.11160e-05	-0.0021934015855032073
1.11163e-05	-0.0022642142242069703
1.11165e-05	-0.002335977867270575
1.11167e-05	-0.0024098244669029413
1.11170e-05	-0.0024849505035993927
1.11173e-05	-0.0025612515735743283
1.11175e-05	-0.0026377871970944223
1.11178e-05	-0.0027155340913344508
1.11180e-05	-0.0027935683292929416
1.11183e-05	-0.0028713002435645308
1.11185e-05	-0.0029489604390934656
1.11188e-05	-0.0030245899001658297
1.11190e-05	-0.003096668371435634
1.11193e-05	-0.0031680187401062695
1.11195e-05	-0.003232996474232321
1.11198e-05	-0.003296462460012282
1.11200e-05	-0.003359928445791813
1.11203e-05	-0.003415229747418464
1.11205e-05	-0.0034685941816979655
1.11208e-05	-0.0035158490993291596
1.11210e-05	-0.003561654686762438
1.11213e-05	-0.0036022414189998565
1.11215e-05	-0.003641590108217952
1.11218e-05	-0.0036809387974363144
1.11220e-05	-0.0037131044213860927
1.11223e-05	-0.0037435660425461947
1.11225e-05	-0.003774027663706503
1.11228e-05	-0.0037985464712375185
1.11230e-05	-0.0038216554946966176
1.11233e-05	-0.003840702578772406
1.11235e-05	-0.0038587860692037147
1.11238e-05	-0.0038768695596349007
1.11240e-05	-0.003888540362886539
1.11243e-05	-0.003898689916304714
1.11245e-05	-0.0039088394697228196
1.11248e-05	-0.003918989023140995
1.11250e-05	-0.0039269065484521274
1.11252e-05	-0.003929815379293495
1.11255e-05	-0.003932724210134881
1.11258e-05	-0.003935633040976268
1.11260e-05	-0.003938541871817635
1.11263e-05	-0.0039375675103128106
1.11265e-05	-0.003935671958432606
1.11268e-05	-0.0039337764065524
1.11270e-05	-0.003929876780152366
1.11273e-05	-0.00392550173713768
1.11275e-05	-0.003921126694122996
1.11278e-05	-0.003915557725030466
1.11280e-05	-0.003909705526802226
1.11283e-05	-0.0039038533285739863
1.11285e-05	-0.0038972167636312583
1.11288e-05	-0.003890394127280269
1.11290e-05	-0.0038835714909292796
1.11293e-05	-0.003877106348652717
1.11295e-05	-0.003870726012914455
1.11298e-05	-0.003864345677176194
1.11300e-05	-0.003858533354921655
1.11303e-05	-0.00385319884601986
1.11305e-05	-0.0038479978490559563
1.11308e-05	-0.0038419010238809233
1.11310e-05	-0.003832891833062432
1.11313e-05	-0.0038232428655281285
1.11315e-05	-0.003810063589121364
1.11318e-05	-0.0037960468351274355
1.11320e-05	-0.0037783774501965795
1.11323e-05	-0.0037598415698247767
1.11325e-05	-0.0037413056894528484
1.11328e-05	-0.003717717456170477
1.11330e-05	-0.0036929306783762836
1.11333e-05	-0.0036660730351633004
1.11335e-05	-0.0036345683482414655
1.11337e-05	-0.003603063661319844
1.11340e-05	-0.003567638476958919
1.11343e-05	-0.0035312832525209075
1.11345e-05	-0.0034919090254399163
1.11348e-05	-0.0034518186154010875
1.11350e-05	-0.003409124062705131
1.11353e-05	-0.0033641445865755775
1.11355e-05	-0.0033173367575744833
1.11358e-05	-0.003269003434810173
1.11360e-05	-0.0032194355027254052
1.11363e-05	-0.0031689214034615405
1.11365e-05	-0.0031176702435802743
1.11368e-05	-0.0030657083341515193
1.11370e-05	-0.0030130537769308702
1.11373e-05	-0.0029598964265874373
1.11375e-05	-0.0029065387370707132
1.11378e-05	-0.002853309086136051
1.11380e-05	-0.002800527510137545
1.11383e-05	-0.00274851271920025
1.11385e-05	-0.002697534197917183
1.11388e-05	-0.002647746186524918
1.11390e-05	-0.0025992983195982063
1.11393e-05	-0.002552447714388195
1.11395e-05	-0.0025075217809635134
1.11398e-05	-0.002465943818960868
1.11400e-05	-0.002425069584560455
1.11403e-05	-0.002388910865742013
1.11405e-05	-0.00235387078519468
1.11408e-05	-0.0023218163039576407
1.11410e-05	-0.0022921199239388013
1.11413e-05	-0.0022628149278059507
1.11415e-05	-0.002236620362218269
1.11418e-05	-0.0022111636685739444
1.11420e-05	-0.002185706974929619
1.11422e-05	-0.002164206960963548
1.11425e-05	-0.002143645570407153
1.11428e-05	-0.0021259552041604543
1.11430e-05	-0.002108945916708865
1.11433e-05	-0.002091936629257161
1.11435e-05	-0.002077802645147052
1.11438e-05	-0.0020643507549253878
1.11440e-05	-0.0020508988647038153
