Time(s)	Current(A)
2.50000e-07	-0.003555342089734926
2.50250e-07	-0.0035562101541084115
2.50500e-07	-0.0035574939589944547
2.50750e-07	-0.003558777763880498
2.51000e-07	-0.003560061568766541
2.51250e-07	-0.003561345373652584
2.51500e-07	-0.003562629178538627
2.51750e-07	-0.00356391298342467
2.52000e-07	-0.0035651967883107132
2.52250e-07	-0.003566480593196756
2.52500e-07	-0.003567764398082799
2.52750e-07	-0.003569396159072753
2.53000e-07	-0.003571296615918513
2.53250e-07	-0.0035731970727642735
2.53500e-07	-0.003575097529610034
2.53750e-07	-0.003576997986455794
2.54000e-07	-0.0035788984433015544
2.54250e-07	-0.0035807989001473144
2.54500e-07	-0.003582699356993075
2.54750e-07	-0.003584599813838835
2.55000e-07	-0.003586500270684595
2.55250e-07	-0.0035825429050425415
2.55500e-07	-0.0035740620589705206
2.55750e-07	-0.0035655812128985017
2.56000e-07	-0.0035571003668264808
2.56250e-07	-0.00354861952075446
2.56500e-07	-0.0035401386746824414
2.56750e-07	-0.0035316578286104204
2.57000e-07	-0.0035231769825384
2.57250e-07	-0.003514696136466381
2.57500e-07	-0.00350621529039436
2.57750e-07	-0.0034977344443223395
2.58000e-07	-0.003488664960256358
2.58250e-07	-0.003471024799616709
2.58500e-07	-0.0034533846389770634
2.58750e-07	-0.003435744478337414
2.59000e-07	-0.003418104317697765
2.59250e-07	-0.0034004641570581197
2.59500e-07	-0.0033828239964184704
2.59750e-07	-0.0033651838357788215
2.60000e-07	-0.003347543675139176
2.60250e-07	-0.0033299035144995267
2.60500e-07	-0.0033122633538598774
2.60750e-07	-0.003294623193220232
2.61000e-07	-0.003279287069113912
2.61250e-07	-0.0032657301495140774
2.61500e-07	-0.0032521732299142453
2.61750e-07	-0.0032386163103144106
2.62000e-07	-0.0032250593907145785
2.62250e-07	-0.0032115024711147438
2.62500e-07	-0.003197945551514909
2.62750e-07	-0.003184388631915077
2.63000e-07	-0.003170831712315242
2.63250e-07	-0.0031584220080807315
2.63500e-07	-0.0031627159688449504
2.63750e-07	-0.0031670099296091706
2.64000e-07	-0.003171303890373391
2.64250e-07	-0.0031755978511376097
2.64500e-07	-0.00317989181190183
2.64750e-07	-0.00318418577266605
2.65000e-07	-0.0031884797334302693
2.65250e-07	-0.003192773694194489
2.65500e-07	-0.0031970676549587093
2.65750e-07	-0.0032144133629893176
2.66000e-07	-0.003241837786013376
2.66250e-07	-0.003269262209037428
2.66500e-07	-0.0032966866320614865
2.66750e-07	-0.003324111055085545
2.67000e-07	-0.0033515354781095976
2.67250e-07	-0.003378959901133656
2.67500e-07	-0.0034063843241577143
2.67750e-07	-0.003433808747181767
2.68000e-07	-0.0034612331702058253
2.68250e-07	-0.003497249566821386
2.68500e-07	-0.0035399007879774974
2.68750e-07	-0.0035825520091336176
2.69000e-07	-0.003625203230289738
2.69250e-07	-0.003667854451445849
2.69500e-07	-0.003710505672601969
2.69750e-07	-0.00375315689375809
2.70000e-07	-0.003795808114914201
2.70250e-07	-0.003838459336070321
2.70500e-07	-0.0038811105572264326
2.70750e-07	-0.003923563785060557
2.71000e-07	-0.0039658641200886625
2.71250e-07	-0.004008164455116758
2.71500e-07	-0.004050464790144864
2.71750e-07	-0.004092765125172969
2.72000e-07	-0.004135065460201066
2.72250e-07	-0.004177365795229171
2.72500e-07	-0.004219666130257277
2.72750e-07	-0.004261966465285373
2.73000e-07	-0.004299735539341013
2.73250e-07	-0.004334005519599424
2.73500e-07	-0.004368275499857829
2.73750e-07	-0.004402545480116241
2.74000e-07	-0.004436815460374646
2.74250e-07	-0.0044710854406330575
2.74500e-07	-0.004505355420891469
2.74750e-07	-0.004539625401149874
2.75000e-07	-0.004573895381408286
2.75250e-07	-0.004608653016716136
2.75500e-07	-0.004643787225072641
2.75750e-07	-0.004678921433429153
2.76000e-07	-0.0047140556417856645
2.76250e-07	-0.004749189850142169
2.76500e-07	-0.004784324058498681
2.76750e-07	-0.004819458266855193
2.77000e-07	-0.004854592475211698
2.77250e-07	-0.0048897266835682095
2.77500e-07	-0.004924860891924722
2.77750e-07	-0.004959995100281226
2.78000e-07	-0.004995129308637739
2.78250e-07	-0.005030263516994243
2.78500e-07	-0.005065397725350755
2.78750e-07	-0.005100565954940617
2.79000e-07	-0.005136229539894361
2.79250e-07	-0.005171893124848113
2.79500e-07	-0.005207556709801865
2.79750e-07	-0.0052432202947556095
2.80000e-07	-0.005278883879709362
2.80250e-07	-0.005314547464663114
2.80500e-07	-0.005350211049616858
2.80750e-07	-0.00538587463457061
2.81000e-07	-0.005421538219524362
2.81250e-07	-0.005457201804478107
2.81500e-07	-0.005492865389431859
2.81750e-07	-0.005528528974385603
2.82000e-07	-0.005564192559339355
2.82250e-07	-0.005599856144293107
2.82500e-07	-0.00562768480298635
2.82750e-07	-0.0056494632381222315
2.83000e-07	-0.005671241673258114
2.83250e-07	-0.005693020108393991
2.83500e-07	-0.005714798543529873
2.83750e-07	-0.0057365769786657545
2.84000e-07	-0.005758355413801632
2.84250e-07	-0.005780133848937514
2.84500e-07	-0.005801912284073395
2.84750e-07	-0.005823690719209273
2.85000e-07	-0.0058454691543451546
2.85250e-07	-0.005867247589481037
2.85500e-07	-0.0058753646255364335
2.85750e-07	-0.005872932166191967
2.86000e-07	-0.005870499706847501
2.86250e-07	-0.005868067247503035
2.86500e-07	-0.005865634788158568
2.86750e-07	-0.0058632023288141015
2.87000e-07	-0.005860769869469635
2.87250e-07	-0.005858337410125169
2.87500e-07	-0.005855904950780703
2.87750e-07	-0.0058534724914362365
2.88000e-07	-0.005851040032091769
2.88250e-07	-0.005848607572747303
2.88500e-07	-0.005837846270355755
2.88750e-07	-0.00582065333597
2.89000e-07	-0.005803460401584249
2.89250e-07	-0.005786267467198495
2.89500e-07	-0.005769074532812743
2.89750e-07	-0.005751881598426988
2.90000e-07	-0.005734688664041233
2.90250e-07	-0.005717495729655482
2.90500e-07	-0.005700302795269728
2.90750e-07	-0.005683109860883972
2.91000e-07	-0.005665916926498221
2.91250e-07	-0.005651324260367415
2.91500e-07	-0.005638739552413703
2.91750e-07	-0.005626154844459992
2.92000e-07	-0.0056135701365062785
2.92250e-07	-0.005600985428552566
2.92500e-07	-0.005588400720598855
2.92750e-07	-0.005575816012645142
2.93000e-07	-0.005563231304691428
2.93250e-07	-0.0055506465967377185
2.93500e-07	-0.005538061888784005
2.93750e-07	-0.005525477180830294
2.94000e-07	-0.005515626020630572
2.94250e-07	-0.0055078857386276145
2.94500e-07	-0.00550014545662466
2.94750e-07	-0.005492405174621703
2.95000e-07	-0.0054846648926187465
2.95250e-07	-0.005476924610615792
2.95500e-07	-0.005469184328612835
2.95750e-07	-0.0054614440466098785
2.96000e-07	-0.005453703764606924
2.96250e-07	-0.005445963482603967
2.96500e-07	-0.0054382232006010105
2.96750e-07	-0.005430482918598055
2.97000e-07	-0.005422742636595098
2.97250e-07	-0.005415002354592142
2.97500e-07	-0.005407262072589187
2.97750e-07	-0.005399401652232148
2.98000e-07	-0.0053897919955232946
2.98250e-07	-0.005380182338814439
2.98500e-07	-0.0053705726821055835
2.98750e-07	-0.00536096302539673
2.99000e-07	-0.005351353368687874
2.99250e-07	-0.005341743711979018
2.99500e-07	-0.005332134055270164
2.99750e-07	-0.0053225243985613084
3.00000e-07	-0.005312914741852453
3.00250e-07	-0.005303305085143599
3.00500e-07	-0.005293695428434743
3.00750e-07	-0.005284085771725887
3.01000e-07	-0.005274476115017033
3.01250e-07	-0.005264866458308178
3.01500e-07	-0.005255256801599324
3.01750e-07	-0.005251717512231526
3.02000e-07	-0.005252865832966027
3.02250e-07	-0.005254014153700527
3.02500e-07	-0.005255162474435028
3.02750e-07	-0.0052563107951695285
3.03000e-07	-0.005257459115904029
3.03250e-07	-0.00525860743663853
3.03500e-07	-0.005259755757373031
3.03750e-07	-0.005260904078107532
3.04000e-07	-0.005262052398842033
3.04250e-07	-0.005263200719576534
3.04500e-07	-0.005264349040311035
3.04750e-07	-0.0052654973610455355
3.05000e-07	-0.005266645681780036
3.05250e-07	-0.005267794002514537
3.05500e-07	-0.005268942323249038
3.05750e-07	-0.005280311337232612
3.06000e-07	-0.005299572892513149
3.06250e-07	-0.0053188344477936855
3.06500e-07	-0.0053380960030742185
3.06750e-07	-0.005357357558354756
3.07000e-07	-0.005376619113635292
3.07250e-07	-0.005395880668915825
3.07500e-07	-0.005415142224196362
3.07750e-07	-0.005434403779476899
3.08000e-07	-0.005453665334757432
3.08250e-07	-0.005472926890037969
3.08500e-07	-0.0054921884453185054
3.08750e-07	-0.005511450000599038
3.09000e-07	-0.005530711555879576
3.09250e-07	-0.005549973111160109
3.09500e-07	-0.005569234666440645
3.09750e-07	-0.0055920761957358065
3.10000e-07	-0.005617682223687167
3.10250e-07	-0.005643288251638533
3.10500e-07	-0.005668894279589899
3.10750e-07	-0.00569450030754126
3.11000e-07	-0.005720106335492626
3.11250e-07	-0.005745712363443992
3.11500e-07	-0.005771318391395352
3.11750e-07	-0.005796924419346718
3.12000e-07	-0.005822387392485089
3.12250e-07	-0.005845767461449164
3.12500e-07	-0.005869147530413243
3.12750e-07	-0.005892527599377323
3.13000e-07	-0.005915907668341398
3.13250e-07	-0.005939287737305478
3.13500e-07	-0.0059626678062695525
3.13750e-07	-0.0059860478752336325
3.14000e-07	-0.006009427944197712
3.14250e-07	-0.0060328080131617865
3.14500e-07	-0.006060185711956191
3.14750e-07	-0.006090650428211856
3.15000e-07	-0.006121115144467514
3.15250e-07	-0.006151579860723179
3.15500e-07	-0.006182044576978844
3.15750e-07	-0.006212509293234502
3.16000e-07	-0.006242974009490167
3.16250e-07	-0.0062734387257458325
3.16500e-07	-0.0063039034420014906
3.16750e-07	-0.006334368158257156
3.17000e-07	-0.00636483287451282
3.17250e-07	-0.006395297590768479
3.17500e-07	-0.006426381420987036
3.17750e-07	-0.006466479663448709
3.18000e-07	-0.0065065779059103905
3.18250e-07	-0.006546676148372072
3.18500e-07	-0.006586774390833745
3.18750e-07	-0.006626872633295426
3.19000e-07	-0.006666970875757108
3.19250e-07	-0.006707069118218781
3.19500e-07	-0.006747167360680461
3.19750e-07	-0.006787265603142143
3.20000e-07	-0.006827363845603816
3.20250e-07	-0.006867462088065497
3.20500e-07	-0.006907560330527179
3.20750e-07	-0.006945137718458631
3.21000e-07	-0.006980768472438864
3.21250e-07	-0.00701639922641909
3.21500e-07	-0.007052029980399323
3.21750e-07	-0.007087660734379555
3.22000e-07	-0.007123291488359782
3.22250e-07	-0.007158922242340014
3.22500e-07	-0.0071945529963202475
3.22750e-07	-0.007230183750300473
3.23000e-07	-0.007265814504280706
3.23250e-07	-0.00730144525826094
3.23500e-07	-0.007337076012241165
3.23750e-07	-0.0073727067662213985
3.24000e-07	-0.007398926126433262
3.24250e-07	-0.007417877896064901
3.24500e-07	-0.007436829665696544
3.24750e-07	-0.007455781435328186
3.25000e-07	-0.007474733204959824
3.25250e-07	-0.007493684974591467
3.25500e-07	-0.0075126367442231055
3.25750e-07	-0.007531588513854748
3.26000e-07	-0.00755054028348639
3.26250e-07	-0.00756949205311803
3.26500e-07	-0.007588443822749672
3.26750e-07	-0.0076073955923813144
3.27000e-07	-0.007626347362012953
3.27250e-07	-0.007637692507086874
3.27500e-07	-0.007643163725902495
3.27750e-07	-0.007648634944718115
3.28000e-07	-0.007654106163533736
3.28250e-07	-0.007659577382349358
3.28500e-07	-0.007665048601164978
3.28750e-07	-0.007670519819980599
3.29000e-07	-0.007675991038796219
3.29250e-07	-0.00768146225761184
3.29500e-07	-0.007686933476427461
3.29750e-07	-0.007692404695243081
3.30000e-07	-0.007697875914058703
3.30250e-07	-0.007703347132874324
3.30500e-07	-0.007708818351689944
3.30750e-07	-0.007714289570505565
3.31000e-07	-0.007719760789321186
3.31250e-07	-0.007725232008136806
3.31500e-07	-0.007731043049178118
3.31750e-07	-0.00773711650499743
3.32000e-07	-0.007743189960816741
3.32250e-07	-0.007749263416636053
3.32500e-07	-0.007755336872455366
3.32750e-07	-0.007761410328274676
3.33000e-07	-0.007767483784093989
3.33250e-07	-0.0077735572399133
3.33500e-07	-0.007779630695732612
3.33750e-07	-0.007785704151551925
3.34000e-07	-0.0077917776073712355
3.34250e-07	-0.007797851063190548
3.34500e-07	-0.00780392451900986
3.34750e-07	-0.0078099979748291705
3.35000e-07	-0.007816071430648483
3.35250e-07	-0.007822144886467795
3.35500e-07	-0.007828218342287106
3.35750e-07	-0.00783695049273807
3.36000e-07	-0.007847735718911559
3.36250e-07	-0.007858520945085044
3.36500e-07	-0.007869306171258533
3.36750e-07	-0.00788009139743202
3.37000e-07	-0.007890876623605507
3.37250e-07	-0.007901661849778996
3.37500e-07	-0.007908648283430842
3.37750e-07	-0.012862674919877071
3.38000e-07	-0.021346670281300544
3.38250e-07	-0.020892933138102202
3.38500e-07	-0.018862700932524012
3.38750e-07	-0.014550134243611469
3.39000e-07	-0.00816883509157447
3.39250e-07	-0.0067673577895722365
3.39500e-07	-0.00801045613934614
3.39750e-07	-0.010563764522539416
3.40000e-07	-0.01565161460220174
3.40250e-07	-0.01658463233491278
3.40500e-07	-0.014272778985535698
3.40750e-07	-0.012063836705790008
3.41000e-07	-0.008231709990311515
3.41250e-07	-0.005917185459373824
3.41500e-07	-0.0064423086763874295
3.41750e-07	-0.007482169548794485
3.42000e-07	-0.009919602524668208
3.42250e-07	-0.012314128898405882
3.42500e-07	-0.012536552552631613
3.42750e-07	-0.011168567611483497
3.43000e-07	-0.009115504258711611
3.43250e-07	-0.007228314597064088
3.43500e-07	-0.006767106675323196
3.43750e-07	-0.0074766702722927235
3.44000e-07	-0.009015855497512397
3.44250e-07	-0.010526002731572417
3.44500e-07	-0.01067362672247947
3.44750e-07	-0.009823369481056974
3.45000e-07	-0.008542543947817286
3.45250e-07	-0.007364339333881971
3.45500e-07	-0.007078169185688183
3.45750e-07	-0.0075242170673168055
3.46000e-07	-0.008488842435972978
3.46250e-07	-0.009434266355111518
3.46500e-07	-0.009525336585432007
3.46750e-07	-0.008990628181413367
3.47000e-07	-0.008185637741556083
3.47250e-07	-0.007444451601984516
3.47500e-07	-0.007261613194601701
3.47750e-07	-0.007537049216379924
3.48000e-07	-0.008136978911300838
3.48250e-07	-0.008724601209701702
3.48500e-07	-0.008776876992455702
3.48750e-07	-0.008437100501150646
3.49000e-07	-0.007928052528467433
3.49250e-07	-0.007459080784734283
3.49500e-07	-0.007340016970069992
3.49750e-07	-0.007508214173566597
3.50000e-07	-0.007879917799267671
3.50250e-07	-0.008244212994798421
3.50500e-07	-0.008273550825183482
3.50750e-07	-0.008057781962384268
3.51000e-07	-0.00773653651936693
3.51250e-07	-0.0074410172279118615
3.51500e-07	-0.007365355349904184
3.51750e-07	-0.007470353765384654
3.52000e-07	-0.007703597549918474
3.52250e-07	-0.007933027108137362
3.52500e-07	-0.007953538577596116
3.52750e-07	-0.007821493681606524
3.53000e-07	-0.007624426872632345
3.53250e-07	-0.007444555228475027
3.53500e-07	-0.007403360014545596
3.53750e-07	-0.007479832525432041
3.54000e-07	-0.007643295004099556
3.54250e-07	-0.007780985271661256
3.54500e-07	-0.0078020092491562195
3.54750e-07	-0.007726679940341992
3.55000e-07	-0.007609084632813007
3.55250e-07	-0.00750991031811169
3.55500e-07	-0.007493668693986147
3.55750e-07	-0.007551434540322751
3.56000e-07	-0.00766397532740863
3.56250e-07	-0.007760440025004063
3.56500e-07	-0.007784109222431997
3.56750e-07	-0.0077476158492070495
3.57000e-07	-0.00768482817670226
3.57250e-07	-0.007633618536885551
3.57500e-07	-0.007634516805476006
3.57750e-07	-0.007681849839030066
3.58000e-07	-0.007763544291122109
3.58250e-07	-0.007835171622898004
3.58500e-07	-0.007861206264418488
3.58750e-07	-0.007849523240074758
3.59000e-07	-0.007821309753999355
3.59250e-07	-0.007800321265991986
3.59500e-07	-0.007811847530194435
3.59750e-07	-0.007850191455696903
3.60000e-07	-0.00790219060988713
3.60250e-07	-0.007954189764077345
3.60500e-07	-0.007996157099956394
3.60750e-07	-0.008000353155403227
3.61000e-07	-0.00799924239801257
3.61250e-07	-0.00799813164062191
3.61500e-07	-0.00800389417184255
3.61750e-07	-0.008036734906611475
3.62000e-07	-0.008077551670648293
3.62250e-07	-0.008118368434685101
3.62500e-07	-0.008152724041276052
3.62750e-07	-0.008162598942767562
3.63000e-07	-0.00816850042348204
3.63250e-07	-0.008174401904196521
3.63500e-07	-0.008184635265212029
3.63750e-07	-0.008212312068613434
3.64000e-07	-0.00824638171103802
3.64250e-07	-0.008280451353462606
3.64500e-07	-0.008310846697341317
3.64750e-07	-0.008327577143073469
3.65000e-07	-0.008342976872285591
3.65250e-07	-0.008358376601497717
3.65500e-07	-0.008376771473119582
3.65750e-07	-0.00840733940218211
3.66000e-07	-0.008442734006189516
3.66250e-07	-0.008478128610196922
3.66500e-07	-0.008511158971215644
3.66750e-07	-0.008535633197153964
3.67000e-07	-0.008561715823438022
3.67250e-07	-0.008593619209554043
3.67500e-07	-0.00862552259567007
3.67750e-07	-0.008657425981786098
3.68000e-07	-0.00868932936790212
3.68250e-07	-0.008722532043769734
3.68500e-07	-0.008756248818418817
3.68750e-07	-0.008789965593067908
3.69000e-07	-0.008823682367716997
3.69250e-07	-0.008857735236720498
3.69500e-07	-0.008893004422621186
3.69750e-07	-0.008928273608521874
3.70000e-07	-0.008963542794422555
3.70250e-07	-0.008998811980323243
3.70500e-07	-0.009034081166223932
3.70750e-07	-0.009069350352124611
3.71000e-07	-0.0091046195380253
3.71250e-07	-0.009139888723925987
3.71500e-07	-0.009175157909826669
3.71750e-07	-0.009210427095727357
3.72000e-07	-0.009245696281628045
3.72250e-07	-0.009280965467528726
3.72500e-07	-0.009313251588123449
3.72750e-07	-0.009334742071453291
3.73000e-07	-0.009356232554783139
3.73250e-07	-0.009377723038112984
3.73500e-07	-0.009399213521442826
3.73750e-07	-0.009420704004772672
3.74000e-07	-0.00944219448810252
3.74250e-07	-0.00946368497143236
3.74500e-07	-0.009485175454762207
3.74750e-07	-0.009506665938092053
3.75000e-07	-0.009528156421421895
3.75250e-07	-0.00954964690475174
3.75500e-07	-0.009571137388081588
3.75750e-07	-0.009587992229109209
3.76000e-07	-0.009588070798868231
3.76250e-07	-0.009588149368627253
3.76500e-07	-0.009588227938386274
3.76750e-07	-0.009588306508145296
3.77000e-07	-0.009588385077904318
3.77250e-07	-0.009588463647663342
3.77500e-07	-0.009588542217422363
3.77750e-07	-0.009588620787181385
3.78000e-07	-0.009588699356940407
3.78250e-07	-0.009588777926699429
3.78500e-07	-0.009586314843748537
3.78750e-07	-0.0095746535844604
3.79000e-07	-0.009562992325172262
3.79250e-07	-0.009551331065884126
3.79500e-07	-0.009539669806595989
3.79750e-07	-0.00952800854730785
3.80000e-07	-0.009516347288019714
3.80250e-07	-0.009504686028731576
3.80500e-07	-0.00949302476944344
3.80750e-07	-0.009481363510155303
3.81000e-07	-0.009469702250867166
3.81250e-07	-0.009459065700918735
3.81500e-07	-0.009452137547937476
3.81750e-07	-0.009445209394956217
3.82000e-07	-0.009438281241974959
3.82250e-07	-0.009431353088993701
3.82500e-07	-0.009424424936012442
3.82750e-07	-0.009417496783031184
3.83000e-07	-0.009410568630049927
3.83250e-07	-0.009403640477068667
3.83500e-07	-0.00939671232408741
3.83750e-07	-0.00938978417110615
3.84000e-07	-0.009399083582360914
3.84250e-07	-0.009414803863933481
3.84500e-07	-0.00943052414550605
3.84750e-07	-0.009446244427078617
3.85000e-07	-0.009461964708651186
3.85250e-07	-0.009477684990223756
3.85500e-07	-0.009493405271796321
3.85750e-07	-0.00950912555336889
3.86000e-07	-0.009524845834941462
3.86250e-07	-0.009540566116514028
3.86500e-07	-0.009561533549336875
3.86750e-07	-0.009601490288716175
3.87000e-07	-0.009641447028095466
3.87250e-07	-0.009681403767474766
3.87500e-07	-0.009721360506854066
3.87750e-07	-0.009761317246233359
3.88000e-07	-0.009801273985612658
3.88250e-07	-0.00984123072499195
3.88500e-07	-0.00988118746437125
3.88750e-07	-0.00992374332296978
3.89000e-07	-0.009975705327737294
3.89250e-07	-0.010027667332504818
3.89500e-07	-0.010079629337272342
3.89750e-07	-0.010131591342039854
3.90000e-07	-0.010183553346807378
3.90250e-07	-0.010235515351574902
3.90500e-07	-0.010287477356342415
3.90750e-07	-0.010339439361109938
3.91000e-07	-0.010390482091137796
3.91250e-07	-0.010438197989327066
3.91500e-07	-0.010485913887516346
3.91750e-07	-0.010533629785705625
3.92000e-07	-0.010581345683894895
3.92250e-07	-0.010629061582084175
3.92500e-07	-0.010676777480273444
3.92750e-07	-0.010724493378462725
3.93000e-07	-0.010772209276652005
3.93250e-07	-0.01081584698954567
3.93500e-07	-0.01084472585386049
3.93750e-07	-0.010873604718175313
3.94000e-07	-0.010902483582490127
3.94250e-07	-0.010931362446804947
3.94500e-07	-0.01096024131111977
3.94750e-07	-0.010989120175434583
3.95000e-07	-0.011017999039749406
3.95250e-07	-0.011046877904064226
3.95500e-07	-0.011070954564332713
3.95750e-07	-0.01107765217062806
3.96000e-07	-0.011084349776923406
3.96250e-07	-0.011091047383218753
3.96500e-07	-0.0110977449895141
