Time(s)	Current(A)
9.00000e-06	0.004226240581099995
9.00025e-06	0.004231430143316405
9.00050e-06	0.004236619705532815
9.00075e-06	0.00424180926774919
9.00100e-06	0.004241075191397319
9.00125e-06	0.004237758130827389
9.00150e-06	0.004234441070257482
9.00175e-06	0.004226470251103568
9.00200e-06	0.004216470174958612
9.00225e-06	0.004206470098813723
9.00250e-06	0.004192562184140272
9.00275e-06	0.004176950268601564
9.00300e-06	0.004161338353062961
9.00325e-06	0.004142656502527139
9.00350e-06	0.004122636016361059
9.00375e-06	0.004102615530195115
9.00400e-06	0.00408064463764727
9.00425e-06	0.004057823276448248
9.00450e-06	0.0040340135522604
9.00475e-06	0.004009772855457665
9.00500e-06	0.003985038949958656
9.00525e-06	0.0039600899823380945
9.00550e-06	0.003935118478225325
9.00575e-06	0.003910137147145127
9.00600e-06	0.003885626731468878
9.00625e-06	0.0038613216569931726
9.00650e-06	0.0038380615299360796
9.00675e-06	0.003815257048958878
9.00700e-06	0.003794063197563585
9.00725e-06	0.0037735716562002863
9.00750e-06	0.003755241429276777
9.00775e-06	0.003737853636808706
9.00800e-06	0.0037233373014790346
9.00825e-06	0.0037100730561253955
9.00850e-06	0.0037005916987734363
9.00875e-06	0.003692759857997503
9.00900e-06	0.003689926821928544
9.00925e-06	0.0036892734991424542
9.00950e-06	0.00368862017635636
9.00975e-06	0.0036945649269658157
9.01000e-06	0.003703386747007736
9.01025e-06	0.003712208567049716
9.01050e-06	0.0037230997014682586
9.01075e-06	0.0037424601016723125
9.01100e-06	0.0037618205018764973
9.01125e-06	0.0037811809020806826
9.01150e-06	0.003804922414866329
9.01175e-06	0.0038323512762774674
9.01200e-06	0.0038622650005990843
9.01225e-06	0.003894604070841317
9.01250e-06	0.003929303383980415
9.01275e-06	0.003966224067394812
9.01300e-06	0.004005171618896582
9.01325e-06	0.004045940004104433
9.01350e-06	0.004088322752196979
9.01375e-06	0.004132113109562355
9.01400e-06	0.004177118590296775
9.01425e-06	0.0042231753042440276
9.01450e-06	0.0042701161468747945
9.01475e-06	0.004317728148859133
9.01500e-06	0.0043657632974916
9.01525e-06	0.004413965944725134
9.01550e-06	0.00446208044251366
9.01575e-06	0.0045098511428101175
9.01600e-06	0.004557031152751415
9.01625e-06	0.004603391989119482
9.01650e-06	0.004648702452029919
9.01675e-06	0.004692703062577201
9.01700e-06	0.00473511238790187
9.01725e-06	0.004775644370578885
9.01750e-06	0.004814012446045399
9.01775e-06	0.0048499304154803365
9.01800e-06	0.004883203157354076
9.01825e-06	0.004913882995348847
9.01850e-06	0.004940545709551485
9.01875e-06	0.0049657943302105975
9.01900e-06	0.0049910429508697104
9.01925e-06	0.005011052080329952
9.01950e-06	0.005028776545908747
9.01975e-06	0.005046501011487541
9.02000e-06	0.005058779752645487
9.02025e-06	0.005068683902565235
9.02050e-06	0.005078588052484984
9.02075e-06	0.0050837066837075015
9.02100e-06	0.005086738604349176
9.02125e-06	0.005089770524990851
9.02150e-06	0.005088249317620526
9.02175e-06	0.005084742732906661
9.02200e-06	0.005081236148192797
9.02225e-06	0.005074326823403341
9.02250e-06	0.0050659337443608775
9.02275e-06	0.005055352031462411
9.02300e-06	0.0050438159715613705
9.02325e-06	0.005030358310914913
9.02350e-06	0.005016062742225209
9.02375e-06	0.005000106931244673
9.02400e-06	0.004983427176763954
9.02425e-06	0.004965525101323145
9.02450e-06	0.004947090036620044
9.02475e-06	0.004927946126282456
9.02500e-06	0.004908493126005175
9.02525e-06	0.0048887192644492105
9.02550e-06	0.004868805492328274
9.02575e-06	0.004848955276357401
9.02600e-06	0.004829132773848641
9.02625e-06	0.004809868981782825
9.02650e-06	0.004790848813672097
9.02675e-06	0.004772929528877295
9.02700e-06	0.004755490280837094
9.02725e-06	0.004740101853571887
9.02750e-06	0.004725607680343146
9.02775e-06	0.0047111135071145034
9.02800e-06	0.00470087105167
9.02825e-06	0.004692482544574729
9.02850e-06	0.004684094037479514
9.02875e-06	0.004675705530384244
9.02900e-06	0.004667317023288973
9.02925e-06	0.004660508038288956
9.02950e-06	0.004660163702933414
9.02975e-06	0.004659819367577872
9.03000e-06	0.004659475032222331
9.03025e-06	0.004659130696866789
9.03050e-06	0.004658786361511247
9.03075e-06	0.004662566189458525
9.03100e-06	0.004668144346019198
9.03125e-06	0.004673722502579869
9.03150e-06	0.004681956830628444
9.03175e-06	0.00469134937401387
9.03200e-06	0.004700741917399297
9.03225e-06	0.004712119995990463
9.03250e-06	0.004724363861048289
9.03275e-06	0.004737890360555591
9.03300e-06	0.004751976148835268
9.03325e-06	0.004767184221991691
9.03350e-06	0.004782881663986835
9.03375e-06	0.004799325566480694
9.03400e-06	0.0048165301258282925
9.03425e-06	0.004834281454500118
9.03450e-06	0.004852458572941862
9.03475e-06	0.0048709564641588165
9.03500e-06	0.0048896887885130046
9.03525e-06	0.004908574886682026
9.03550e-06	0.004927533692126117
9.03575e-06	0.004946484362652402
9.03600e-06	0.004965337907940166
9.03625e-06	0.004983984799557342
9.03650e-06	0.005002302968263912
9.03675e-06	0.005020179431808573
9.03700e-06	0.005037513290626144
9.03725e-06	0.005054207080112602
9.03750e-06	0.005070163477058779
9.03775e-06	0.005085284833989453
9.03800e-06	0.005099303770878632
9.03825e-06	0.005111552746333776
9.03850e-06	0.005121265102763825
9.03875e-06	0.005128085025823068
9.03900e-06	0.005131049409406534
9.03925e-06	0.005132722996073113
9.03950e-06	0.005130649526140039
9.03975e-06	0.005126942163801126
9.04000e-06	0.005119413325798958
9.04025e-06	0.005110218145189104
9.04050e-06	0.005095368791119075
9.04075e-06	0.005078053952252799
9.04100e-06	0.005060739113386406
9.04125e-06	0.005037329477511821
9.04150e-06	0.005011262224309798
9.04175e-06	0.004985194971107598
9.04200e-06	0.00495390789884929
9.04225e-06	0.004920344740684868
9.04250e-06	0.004886781582520673
9.04275e-06	0.004849077330434367
9.04300e-06	0.004809567367190167
9.04325e-06	0.004767513212342236
9.04350e-06	0.0047243496706378205
9.04375e-06	0.004679382561038752
9.04400e-06	0.00463362901125464
9.04425e-06	0.004586532351398378
9.04450e-06	0.004538850032561928
9.04475e-06	0.00449035202242071
9.04500e-06	0.004441498332616037
9.04525e-06	0.004392692634190077
9.04550e-06	0.004343907862256256
9.04575e-06	0.004296045303031964
9.04600e-06	0.004248584871798916
9.04625e-06	0.004202744798129875
9.04650e-06	0.0041576112763495035
9.04675e-06	0.004114838249443028
9.04700e-06	0.004073094509003896
9.04725e-06	0.004034662173695601
9.04750e-06	0.003997673766322173
9.04775e-06	0.00396604763889916
9.04800e-06	0.00393675971701351
9.04825e-06	0.003907471795127861
9.04850e-06	0.0038846971896607505
9.04875e-06	0.0038647626956123935
9.04900e-06	0.0038448282015640365
9.04925e-06	0.003832301056378068
9.04950e-06	0.003823003862684769
9.04975e-06	0.00381370666899147
9.05000e-06	0.0038066928008241726
9.05025e-06	0.003809024100797563
9.05050e-06	0.003811355400770953
9.05075e-06	0.0038136867007443434
9.05100e-06	0.003821777475724024
9.05125e-06	0.0038323796519134827
9.05150e-06	0.003845997178309926
9.05175e-06	0.003862899941598686
9.05200e-06	0.0038825679288845075
9.05225e-06	0.0039048286126818817
9.05250e-06	0.003929445032674557
9.05275e-06	0.003956216163626113
9.05300e-06	0.003984992092758151
9.05325e-06	0.004015635267119845
9.05350e-06	0.00404800849950271
9.05375e-06	0.004081975858286294
9.05400e-06	0.004117378488878539
9.05425e-06	0.0041539987163217735
9.05450e-06	0.004191577876144962
9.05475e-06	0.004229879808311876
9.05500e-06	0.004268700734159898
9.05525e-06	0.004307845075948102
9.05550e-06	0.0043471172559355524
9.05575e-06	0.004386321372116041
9.05600e-06	0.004425248734710525
9.05625e-06	0.004463652712919345
9.05650e-06	0.004501261835641749
9.05675e-06	0.004537818124634149
9.05700e-06	0.0045730844904279195
9.05725e-06	0.004606828202299463
9.05750e-06	0.004638100795121026
9.05775e-06	0.004668506847367511
9.05800e-06	0.004696780688055489
9.05825e-06	0.004723103346379596
9.05850e-06	0.004748387202864012
9.05875e-06	0.004772902235573422
9.05900e-06	0.004796583936329398
9.05925e-06	0.004819288133003733
9.05950e-06	0.004840414856027758
9.05975e-06	0.004860988935854232
9.06000e-06	0.004880206772833145
9.06025e-06	0.004898181449519931
9.06050e-06	0.004915488639327251
9.06075e-06	0.0049322992456609805
9.06100e-06	0.004948346846258029
9.06125e-06	0.00496412438199459
9.06150e-06	0.00497858442467926
9.06175e-06	0.004992469978605396
9.06200e-06	0.005006355532531625
9.06225e-06	0.005019134366352991
9.06250e-06	0.005031430618305556
9.06275e-06	0.005043136057474425
9.06300e-06	0.005054583874561598
9.06325e-06	0.0050660316916486935
9.06350e-06	0.0050765258422171625
9.06375e-06	0.005086604149458364
9.06400e-06	0.005096682456699497
9.06425e-06	0.005106007710032078
9.06450e-06	0.005115004596543723
9.06475e-06	0.005124001483055305
9.06500e-06	0.005132376931654134
9.06525e-06	0.005140481404178724
9.06550e-06	0.005148585876703259
9.06575e-06	0.005156690349227849
9.06600e-06	0.005164600755134853
9.06625e-06	0.0051717168874471555
9.06650e-06	0.005178833019759506
9.06675e-06	0.005185949152071857
9.06700e-06	0.00519306528438416
9.06725e-06	0.005199944125990708
9.06750e-06	0.0052066131384493185
9.06775e-06	0.0052131161190967275
9.06800e-06	0.005219303945125119
9.06825e-06	0.005224713326984177
9.06850e-06	0.005228790108883538
9.06875e-06	0.0052312787124534944
9.06900e-06	0.0052316771021391475
9.06925e-06	0.005231379544576557
9.06950e-06	0.005228656801059188
9.06975e-06	0.005224876562728807
9.07000e-06	0.005221096324398425
9.07025e-06	0.005214232704839718
9.07050e-06	0.0052060245864606015
9.07075e-06	0.005196933274989028
9.07100e-06	0.005184227241103635
9.07125e-06	0.005171521207218156
9.07150e-06	0.005155987573182178
9.07175e-06	0.005139220972871489
9.07200e-06	0.0051224543725606865
9.07225e-06	0.005102826016073129
9.07250e-06	0.005081949799681548
9.07275e-06	0.005061073583289826
9.07300e-06	0.005037735971231975
9.07325e-06	0.005013325075228894
9.07350e-06	0.004988914179225648
9.07375e-06	0.0049632152983832434
9.07400e-06	0.004936954795746989
9.07425e-06	0.004909981556283657
9.07450e-06	0.004882697530137722
9.07475e-06	0.004854974447730092
9.07500e-06	0.004827059916201143
9.07525e-06	0.0047992298559840245
9.07550e-06	0.004771436629220607
9.07575e-06	0.004744259345861308
9.07600e-06	0.004717350642712943
9.07625e-06	0.004691451217714569
9.07650e-06	0.004665991885323122
9.07675e-06	0.004641955918855787
9.07700e-06	0.004618540606684805
9.07725e-06	0.004597119044459394
9.07750e-06	0.004576566850713423
9.07775e-06	0.004559238780479784
9.07800e-06	0.004543316579303408
9.07825e-06	0.0045273943781269236
9.07850e-06	0.004516019981591935
9.07875e-06	0.004506628641164882
9.07900e-06	0.004497237300737766
9.07925e-06	0.0044878459603106486
9.07950e-06	0.0044839638193850135
9.07975e-06	0.004482483947813947
9.08000e-06	0.00448100407624288
9.08025e-06	0.004479524204671823
9.08050e-06	0.004482077068108598
9.08075e-06	0.004486388393137151
9.08100e-06	0.0044931443600845535
9.08125e-06	0.004500966305558131
9.08150e-06	0.004510580307480128
9.08175e-06	0.004522148600441329
9.08200e-06	0.004535362926882263
9.08225e-06	0.00455011840179583
9.08250e-06	0.004566271179209937
9.08275e-06	0.004583700724483292
9.08300e-06	0.004602318418685831
9.08325e-06	0.004622044350946858
9.08350e-06	0.00464279921745258
9.08375e-06	0.004664503531517954
9.08400e-06	0.004687063397355517
9.08425e-06	0.0047103485410440816
9.08450e-06	0.0047342038653284055
9.08475e-06	0.004758488962956063
9.08500e-06	0.004783083401095109
9.08525e-06	0.004807872344278768
9.08550e-06	0.0048327415640962695
9.08575e-06	0.004857576000733839
9.08600e-06	0.004882252063540754
9.08625e-06	0.004906623495287149
9.08650e-06	0.0049305282383058134
9.08675e-06	0.004953813629216899
9.08700e-06	0.00497633965290704
9.08725e-06	0.004997969080691552
9.08750e-06	0.005018565839555266
9.08775e-06	0.005037993124999133
9.08800e-06	0.005056322394293806
9.08825e-06	0.005074142897379886
9.08850e-06	0.00509223741842027
9.08875e-06	0.005110962341122078
9.08900e-06	0.005130267172401943
9.08925e-06	0.005150005046083383
9.08950e-06	0.005170062374737949
9.08975e-06	0.005190207580518812
9.09000e-06	0.005210480709265176
9.09025e-06	0.00523120003477472
9.09050e-06	0.0052531413571286515
9.09075e-06	0.005275541294862659
9.09100e-06	0.005298917759873053
9.09125e-06	0.005323228485775053
9.09150e-06	0.005348311523164943
9.09175e-06	0.005373634649629854
9.09200e-06	0.005399377052126332
9.09225e-06	0.005425716042144072
9.09250e-06	0.005453062979472397
9.09275e-06	0.005480770757389782
9.09300e-06	0.005509174086032099
9.09325e-06	0.005538198488161544
9.09350e-06	0.005567570284952082
9.09375e-06	0.0055971531187080535
9.09400e-06	0.005626788268693605
9.09425e-06	0.0056566009543534985
9.09450e-06	0.005686491053893851
9.09475e-06	0.005716529829428318
9.09500e-06	0.005746602305125765
9.09525e-06	0.0057765191783431345
9.09550e-06	0.005806121517186036
9.09575e-06	0.0058352498826231575
9.09600e-06	0.005863777303706643
9.09625e-06	0.005891655943619208
9.09650e-06	0.005918867865916963
9.09675e-06	0.005945330339386061
9.09700e-06	0.005970896725976778
9.09725e-06	0.005995406272625254
9.09750e-06	0.006018698791848993
9.09775e-06	0.0060406127991007
9.09800e-06	0.0060609204182396
9.09825e-06	0.006079244767183878
9.09850e-06	0.006095204497605178
9.09875e-06	0.0061086188310710415
9.09900e-06	0.006119467685680788
9.09925e-06	0.006127765921119868
9.09950e-06	0.006132652616626257
9.09975e-06	0.006136388849964983
9.10000e-06	0.006135549851157933
9.10025e-06	0.006132715836563391
9.10050e-06	0.00612988182196883
9.10075e-06	0.0061222548305610025
9.10100e-06	0.006112537876478785
9.10125e-06	0.00609930928296759
9.10150e-06	0.00608454944997444
9.10175e-06	0.006066613755070125
9.10200e-06	0.006047293235429214
9.10225e-06	0.006024969039161375
9.10250e-06	0.006001335099016002
9.10275e-06	0.005974976513199147
9.10300e-06	0.0059474298540871705
9.10325e-06	0.005917683698207477
9.10350e-06	0.0058869784585839
9.10375e-06	0.005854606815615107
9.10400e-06	0.005821508542635847
9.10425e-06	0.005787174167389619
9.10450e-06	0.005752300793583142
9.10475e-06	0.005716688741664213
9.10500e-06	0.005680754591445493
9.10525e-06	0.005644732889387038
9.10550e-06	0.005608673010620502
9.10575e-06	0.005573182056677858
9.10600e-06	0.005537939180639903
9.10625e-06	0.005503495782602921
9.10650e-06	0.005470123459277875
9.10675e-06	0.0054379601660529036
9.10700e-06	0.00540726488412604
9.10725e-06	0.0053790250603165885
9.10750e-06	0.005351650928711559
9.10775e-06	0.005327516539433669
9.10800e-06	0.005304794829750285
9.10825e-06	0.005285655449499108
9.10850e-06	0.005268078132887103
9.10875e-06	0.005255042594970738
9.10900e-06	0.0052439874855691685
9.10925e-06	0.0052329323761676
9.10950e-06	0.005227179233223519
9.10975e-06	0.005223737996310305
9.11000e-06	0.005221676922329374
9.11025e-06	0.005225264563151293
9.11050e-06	0.005228852203973237
9.11075e-06	0.005235667783837253
9.11100e-06	0.0052456613892639505
9.11125e-06	0.005258158269124512
9.11150e-06	0.005273102078403329
9.11175e-06	0.005290436147818512
9.11200e-06	0.005310087453389262
9.11225e-06	0.005331933098252898
9.11250e-06	0.005355808822752903
9.11275e-06	0.005381555385806966
9.11300e-06	0.005409033021156082
9.11325e-06	0.005438108591147556
9.11350e-06	0.0054686477609839365
9.11375e-06	0.005500516785956602
9.11400e-06	0.00553357146189073
9.11425e-06	0.005567636187356231
9.11450e-06	0.005602509498808892
9.11475e-06	0.005637993439296514
9.11500e-06	0.005673902724641207
9.11525e-06	0.005710054449877121
9.11550e-06	0.0057462664415211025
9.11575e-06	0.005782356443138713
9.11600e-06	0.005818136078716522
9.11625e-06	0.005853397241024661
9.11650e-06	0.00588791460090471
9.11675e-06	0.005921466369728231
9.11700e-06	0.005953837719278031
9.11725e-06	0.005984816025216462
9.11750e-06	0.006014189270263008
9.11775e-06	0.006041744605733511
9.11800e-06	0.0060675567070302815
9.11825e-06	0.006092413702896019
9.11850e-06	0.006117377257699794
9.11875e-06	0.00614293025669865
9.11900e-06	0.006168998699420113
9.11925e-06	0.006195376256438095
9.11950e-06	0.006221800562509658
9.11975e-06	0.00624821263789493
9.12000e-06	0.006274489656461335
9.12025e-06	0.006301035292653485
9.12050e-06	0.0063288628847241925
9.12075e-06	0.006357187198185973
9.12100e-06	0.006386558891060759
9.12125e-06	0.0064168983338100255
9.12150e-06	0.006448053157621088
9.12175e-06	0.006479466357622009
9.12200e-06	0.006510879557622719
9.12225e-06	0.0065435208613274926
9.12250e-06	0.0065766976758438785
9.12275e-06	0.006609874490360039
9.12300e-06	0.0066442711397954254
9.12325e-06	0.006679199694464448
9.12350e-06	0.00671448845469502
9.12375e-06	0.006749934281444027
9.12400e-06	0.006785380108193033
9.12425e-06	0.006820985257671903
9.12450e-06	0.006856659879333407
9.12475e-06	0.006892334500994911
9.12500e-06	0.00692792832635987
9.12525e-06	0.00696348692075062
9.12550e-06	0.006998359854531875
9.12575e-06	0.0070329338081303785
9.12600e-06	0.007066407040547319
9.12625e-06	0.007099400306906291
9.12650e-06	0.007131198166390196
9.12675e-06	0.0071624747724135076
9.12700e-06	0.007192616771450498
9.12725e-06	0.007221325926882706
9.12750e-06	0.0072485510839285046
9.12775e-06	0.007274096382056591
9.12800e-06	0.007297580114800907
9.12825e-06	0.007318188883217784
9.12850e-06	0.007335026157341857
9.12875e-06	0.00734767361862421
9.12900e-06	0.007356118988254931
9.12925e-06	0.007360442867112542
9.12950e-06	0.007360725631728786
9.12975e-06	0.007357048024377265
9.13000e-06	0.007349374334335986
9.13025e-06	0.007337398096208587
9.13050e-06	0.007319125156495029
9.13075e-06	0.0072986924048692526
9.13100e-06	0.0072735266656549676
9.13125e-06	0.00724337775443266
9.13150e-06	0.0072079304230685814
9.13175e-06	0.0071707278115029915
9.13200e-06	0.0071285319888263745
9.13225e-06	0.007084158891928176
9.13250e-06	0.0070348697592438605
9.13275e-06	0.006983437004399781
9.13300e-06	0.006928757373375418
9.13325e-06	0.006870833739946679
9.13350e-06	0.006809875322264493
9.13375e-06	0.006747941206899345
9.13400e-06	0.006683730257308971
9.13425e-06	0.006618526501215433
9.13450e-06	0.006551659746570722
9.13475e-06	0.006484067846564786
9.13500e-06	0.006415858706091083
9.13525e-06	0.006347367773447945
9.13550e-06	0.006279158950397357
9.13575e-06	0.0062116624664936065
9.13600e-06	0.0061452792674235425
9.13625e-06	0.006080344210799346
9.13650e-06	0.006017179524802606
9.13675e-06	0.005956181172330774
9.13700e-06	0.005897807660068112
9.13725e-06	0.005842530661423442
9.13750e-06	0.005792279974412086
9.13775e-06	0.005743792061548593
9.13800e-06	0.005701179849911207
9.13825e-06	0.005661129719574002
9.13850e-06	0.005625949741373062
9.13875e-06	0.00559289337790966
9.13900e-06	0.0055634130206893215
9.13925e-06	0.005538055617468171
9.13950e-06	0.005517929399942922
9.13975e-06	0.005499596780723028
9.14000e-06	0.0054855220992953806
9.14025e-06	0.0054758858849047925
9.14050e-06	0.005469637539336767
9.14075e-06	0.005466532260435528
9.14100e-06	0.0054665351198026485
9.14125e-06	0.005469663895518301
9.14150e-06	0.0054759365655018535
9.14175e-06	0.005485369852084031
9.14200e-06	0.005497904499414959
9.14225e-06	0.005513276445541695
9.14250e-06	0.005531111344045177
9.14275e-06	0.005551153034049481
9.14300e-06	0.0055732762451079125
9.14325e-06	0.005597389000631958
9.14350e-06	0.0056233990582109095
9.14375e-06	0.005651214399781083
9.14400e-06	0.005680694325891831
9.14425e-06	0.005711570751409391
9.14450e-06	0.00574350600780806
9.14475e-06	0.005776236555284752
9.14500e-06	0.005809580689776566
9.14525e-06	0.0058433776582195755
9.14550e-06	0.005877467273131406
9.14575e-06	0.005911688374230781
9.14600e-06	0.0059458498688382145
9.14625e-06	0.005979680674233415
9.14650e-06	0.00601286681971081
9.14675e-06	0.00604513995427126
9.14700e-06	0.006076283392701993
9.14725e-06	0.006106093499625018
9.14750e-06	0.006134366781057592
9.14775e-06	0.006160199166168881
9.14800e-06	0.006185178867434573
9.14825e-06	0.006207105927897824
9.14850e-06	0.006227701893804801
9.14875e-06	0.006244981914859002
9.14900e-06	0.006260816028441863
9.14925e-06	0.006272376044973551
9.14950e-06	0.006282072354738753
9.14975e-06	0.006291768664503889
9.15000e-06	0.0062961810586250845
9.15025e-06	0.00629828941771359
9.15050e-06	0.00630039777680208
9.15075e-06	0.00629900579173152
