Time(s)	Current(A)
1.17500e-05	-0.0018864402168558086
1.17503e-05	-0.0018941115944283828
1.17505e-05	-0.0019017829720009048
1.17508e-05	-0.001909454349573479
1.17510e-05	-0.001917125727146053
1.17513e-05	-0.0019247971047185752
1.17515e-05	-0.0019346249924602431
1.17518e-05	-0.0019471276549056127
1.17520e-05	-0.0019596303173508977
1.17523e-05	-0.001972132979796267
1.17525e-05	-0.0019846356422416364
1.17528e-05	-0.0019971383046869214
1.17530e-05	-0.002009640967132291
1.17533e-05	-0.0020221436295776605
1.17535e-05	-0.002034646292022945
1.17538e-05	-0.0020471489544683147
1.17540e-05	-0.0020596424669027634
1.17543e-05	-0.002072135460749214
1.17545e-05	-0.0020846284545957498
1.17548e-05	-0.0020971214484422854
1.17550e-05	-0.0021096144422887366
1.17553e-05	-0.0021196960081620838
1.17555e-05	-0.0021296409034444715
1.17558e-05	-0.002139585798726792
1.17560e-05	-0.0021495306940091797
1.17563e-05	-0.0021594755892915675
1.17565e-05	-0.0021659748057782447
1.17568e-05	-0.0021722787342602803
1.17570e-05	-0.002178582662742316
1.17572e-05	-0.002184886591224309
1.17575e-05	-0.0021911905197063448
1.17578e-05	-0.002197494448188381
1.17580e-05	-0.002203798376670374
1.17583e-05	-0.0022101023051524097
1.17585e-05	-0.0022164062336344453
1.17588e-05	-0.0022227101621164814
1.17590e-05	-0.002229014090598474
1.17593e-05	-0.00223531801908051
1.17595e-05	-0.0022392969121988906
1.17598e-05	-0.0022431440311316184
1.17600e-05	-0.0022469911500643722
1.17603e-05	-0.002250838268997126
1.17605e-05	-0.002254685387929854
1.17608e-05	-0.0022585325068626076
1.17610e-05	-0.0022623796257953614
1.17613e-05	-0.002266226744728089
1.17615e-05	-0.002270073863660843
1.17618e-05	-0.002273920982593597
1.17620e-05	-0.0022777681015263246
1.17623e-05	-0.0022816152204590784
1.17625e-05	-0.002284330752284025
1.17628e-05	-0.0022869821500437226
1.17630e-05	-0.002289633547803438
1.17633e-05	-0.0022922849455631537
1.17635e-05	-0.0022949363433228515
1.17638e-05	-0.0022975877410825675
1.17640e-05	-0.002300239138842283
1.17643e-05	-0.002302890536601981
1.17645e-05	-0.0023055419343616964
1.17648e-05	-0.002307272667841401
1.17650e-05	-0.0023089512215617052
1.17653e-05	-0.0023106297752820207
1.17655e-05	-0.0023123083290023357
1.17657e-05	-0.00231398688272264
1.17660e-05	-0.002315665436442955
1.17663e-05	-0.0023173439901632703
1.17665e-05	-0.002319022543883574
1.17668e-05	-0.0023207010976038895
1.17670e-05	-0.0023227221553292843
1.17673e-05	-0.002324762624882606
1.17675e-05	-0.0023268030944359136
1.17678e-05	-0.0023288435639892352
1.17680e-05	-0.002330884033542557
1.17683e-05	-0.0023329245030958646
1.17685e-05	-0.002334964972649186
1.17688e-05	-0.0023370054422025078
1.17690e-05	-0.00234058527932485
1.17693e-05	-0.0023442523619623987
1.17695e-05	-0.002347919444599947
1.17698e-05	-0.002351586527237471
1.17700e-05	-0.0023552536098750193
1.17703e-05	-0.0023589206925125677
1.17705e-05	-0.0023625877751500914
1.17708e-05	-0.00236625485778764
1.17710e-05	-0.002369921940425188
1.17713e-05	-0.0023735890230627116
1.17715e-05	-0.00237725610570026
1.17718e-05	-0.0023809231883378085
1.17720e-05	-0.0023845902709753323
1.17723e-05	-0.002388839278071597
1.17725e-05	-0.002393121266439035
1.17728e-05	-0.0023974032548064444
1.17730e-05	-0.0024016852431738827
1.17733e-05	-0.002405967231541321
1.17735e-05	-0.0024102492199087303
1.17738e-05	-0.0024145312082761686
1.17740e-05	-0.002418813196643607
1.17742e-05	-0.002423095185011016
1.17745e-05	-0.0024273771733784545
1.17748e-05	-0.002431659161745893
1.17750e-05	-0.002435941150113302
1.17753e-05	-0.0024402231384807404
1.17755e-05	-0.00244373723334626
1.17758e-05	-0.0024469768880138183
1.17760e-05	-0.0024499425695911417
1.17763e-05	-0.002452250505846402
1.17765e-05	-0.002452539580418871
1.17768e-05	-0.002449185090480919
1.17770e-05	-0.0024416096556832264
1.17773e-05	-0.0024281522387540545
1.17775e-05	-0.0024143743690005614
1.17778e-05	-0.0023937201616684553
1.17780e-05	-0.0023726762296030876
1.17783e-05	-0.0023448095031791366
1.17785e-05	-0.0023165560866483486
1.17788e-05	-0.0022771121739053107
1.17790e-05	-0.0022370340262806527
1.17793e-05	-0.002196955878655723
1.17795e-05	-0.002148326313284811
1.17798e-05	-0.002095505044304112
1.17800e-05	-0.0020391086040849964
1.17803e-05	-0.001979360191059145
1.17805e-05	-0.0019160993794927399
1.17808e-05	-0.0018490628081830821
1.17810e-05	-0.0017783976142699428
1.17813e-05	-0.0017045396447761783
1.17815e-05	-0.0016279448441190096
1.17818e-05	-0.0015490693337739223
1.17820e-05	-0.0014683693391436162
1.17823e-05	-0.0013862142769407498
1.17825e-05	-0.001302733538124864
1.17827e-05	-0.0012179918489772896
1.17830e-05	-0.0011323112504877907
1.17833e-05	-0.0010461943398903442
1.17835e-05	-0.0009601563067367177
1.17838e-05	-0.00087471268691232
1.17840e-05	-0.0007903788053279773
1.17843e-05	-0.0007076156599873306
1.17845e-05	-0.0006267338716193031
1.17848e-05	-0.000548003487519926
1.17850e-05	-0.0004718556718465249
1.17853e-05	-0.00039883479786427317
1.17855e-05	-0.0003294930596912012
1.17858e-05	-0.00026438273317559285
1.17860e-05	-0.0002040559686619638
1.17863e-05	-0.00014871127357883083
1.17865e-05	-9.750106725446522e-05
1.17868e-05	-4.912949687461337e-05
1.17870e-05	-3.1746389757595112e-06
1.17873e-05	4.010798947800139e-05
1.17875e-05	8.041451546042796e-05
1.17878e-05	0.00011744045205949345
1.17880e-05	0.00015088135173516054
1.17883e-05	0.00018065436933964698
1.17885e-05	0.00020733187547428215
1.17888e-05	0.00023176695500460136
1.17890e-05	0.00025426527092793595
1.17893e-05	0.00027470806677307955
1.17895e-05	0.0002929463470668304
1.17898e-05	0.0003088307738109206
1.17900e-05	0.00032221198770869867
1.17903e-05	0.00033307949874274975
1.17905e-05	0.00034183317062933335
1.17908e-05	0.0003490487612281136
1.17910e-05	0.0003549589828934849
1.17912e-05	0.0003588714468703561
1.17915e-05	0.00036267461901913316
1.17918e-05	0.0003637417711969055
1.17920e-05	0.000364653856139586
1.17923e-05	0.00036293210493091655
1.17925e-05	0.0003610610778785077
1.17928e-05	0.0003576702937369863
1.17930e-05	0.00035419337552765394
1.17933e-05	0.0003494003517554778
1.17935e-05	0.0003445327361115891
1.17938e-05	0.0003396651204677334
1.17940e-05	0.00033340962270199224
1.17943e-05	0.0003270754650413887
1.17945e-05	0.0003207413073808281
1.17948e-05	0.00031438808091578544
1.17950e-05	0.000308033773703229
1.17953e-05	0.0003016794664907157
1.17955e-05	0.00029601635523915875
1.17958e-05	0.0002903924183531909
1.17960e-05	0.00028585425570325527
1.17963e-05	0.0002813776306189991
1.17965e-05	0.000276901005534743
1.17968e-05	0.00027442072911742474
1.17970e-05	0.00027205359817104874
1.17973e-05	0.0002715996457907845
1.17975e-05	0.00027125412511560333
1.17978e-05	0.000272745778626393
1.17980e-05	0.00027434155620225634
1.17983e-05	0.00027779220421856254
1.17985e-05	0.00028134797925654124
1.17988e-05	0.00028702829637328766
1.17990e-05	0.00029282902447732564
1.17993e-05	0.00030068372998471313
1.17995e-05	0.00030865484714127087
1.17997e-05	0.000318445180572567
1.18000e-05	0.0003283386202827072
1.18003e-05	0.00033987519509270936
1.18005e-05	0.00035150489656824335
1.18008e-05	0.00036512182545066565
1.18010e-05	0.00037885138284564704
1.18013e-05	0.0003925809402406284
1.18015e-05	0.00040815024707404175
1.18018e-05	0.0004238238239282111
1.18020e-05	0.0004394974007823805
1.18023e-05	0.00045618393327712375
1.18025e-05	0.00047292787625591564
1.18028e-05	0.0004902354139542348
1.18030e-05	0.0005075748940636302
1.18033e-05	0.0005251376361790786
1.18035e-05	0.0005427298330514763
1.18038e-05	0.0005602406842352468
1.18040e-05	0.0005775654741486456
1.18043e-05	0.0005946064279973191
1.18045e-05	0.0006112847282173947
1.18048e-05	0.0006275246475419518
1.18050e-05	0.0006432275484314187
1.18053e-05	0.0006582795516707897
1.18055e-05	0.0006725657678258057
1.18058e-05	0.0006859712398881004
1.18060e-05	0.000698381062812903
1.18063e-05	0.0007096769744551049
1.18065e-05	0.0007197443231322336
1.18068e-05	0.0007285021095524273
1.18070e-05	0.0007359140310290844
1.18073e-05	0.0007419623507892829
1.18075e-05	0.000746630632418307
1.18078e-05	0.0007492334465367198
1.18080e-05	0.0007517233956476236
1.18082e-05	0.0007515034353702646
1.18085e-05	0.0007511298877063511
1.18088e-05	0.0007473876066741774
1.18090e-05	0.0007434543986109415
1.18093e-05	0.0007395211905476789
1.18095e-05	0.0007318468795257999
1.18098e-05	0.0007239605369767243
1.18100e-05	0.000716074194427702
1.18103e-05	0.0007048345516640935
1.18105e-05	0.0006934048565620177
1.18108e-05	0.0006819751614600194
1.18110e-05	0.0006677168750077609
1.18113e-05	0.0006532982747254395
1.18115e-05	0.0006388796744432159
1.18118e-05	0.0006223325659178851
1.18120e-05	0.0006056648216178674
1.18123e-05	0.0005889970773179625
1.18125e-05	0.0005709285608618606
1.18128e-05	0.0005527806539524743
1.18130e-05	0.000534632747043211
1.18133e-05	0.0005159353427418355
1.18135e-05	0.0004972067950122837
1.18138e-05	0.0004784782472828588
1.18140e-05	0.00046011881909224913
1.18143e-05	0.0004417803111972017
1.18145e-05	0.00042344180330227847
1.18148e-05	0.00040641888683744807
1.18150e-05	0.0003894705331054433
1.18153e-05	0.0003725221793735534
1.18155e-05	0.00035743136773419733
1.18158e-05	0.0003424458345358556
1.18160e-05	0.00032892442195326017
1.18163e-05	0.00031631516642502384
1.18165e-05	0.0003035582604341453
1.18167e-05	0.00028934633587876973
1.18170e-05	0.0002732242799965868
1.18173e-05	0.0002553523698130439
1.18175e-05	0.00023593427419908784
1.18178e-05	0.0002151742745014612
1.18180e-05	0.00019327662296345297
1.18183e-05	0.00017025618591578386
1.18185e-05	0.00014559221280046702
1.18188e-05	0.00011859295825627058
1.18190e-05	8.91006314550838e-05
1.18193e-05	5.734287474269236e-05
1.18195e-05	2.3574492320125417e-05
1.18198e-05	-1.1949340960896714e-05
1.18200e-05	-4.8973471362108925e-05
1.18203e-05	-8.736138735473708e-05
1.18205e-05	-0.00012731207455963974
1.18208e-05	-0.00016913163196982575
1.18210e-05	-0.0002127916382853789
1.18213e-05	-0.0002586224606404078
1.18215e-05	-0.0003045707296021891
1.18218e-05	-0.00035237643048559
1.18220e-05	-0.0004002874035660239
1.18223e-05	-0.00044947659707555597
1.18225e-05	-0.0004987382352717412
1.18228e-05	-0.0005479998734679264
1.18230e-05	-0.0005981560745418481
1.18233e-05	-0.0006483629760474376
1.18235e-05	-0.0006985698775530271
1.18238e-05	-0.0007473381630834301
1.18240e-05	-0.0007960249133166034
1.18243e-05	-0.0008447116635497768
1.18245e-05	-0.0008900419186027548
1.18248e-05	-0.0009351819402385951
1.18250e-05	-0.0009803219618744355
1.18252e-05	-0.001020247707533312
1.18255e-05	-0.001059877927804959
1.18258e-05	-0.001099508148076606
1.18260e-05	-0.001132837895812547
1.18263e-05	-0.0011658105566595552
1.18265e-05	-0.0011930688008508954
1.18268e-05	-0.0012200031735777233
1.18270e-05	-0.001241366131910596
1.18273e-05	-0.0012624133236049748
1.18275e-05	-0.0012775963208509751
1.18278e-05	-0.0012924469577950493
1.18280e-05	-0.001301108450235955
1.18283e-05	-0.0013094191654382252
1.18285e-05	-0.0013102467015451984
1.18288e-05	-0.001310650119440437
1.18290e-05	-0.0013110535373356755
1.18293e-05	-0.0013032652465673315
1.18295e-05	-0.0012950126808183046
1.18298e-05	-0.0012867601150692777
1.18300e-05	-0.0012708387500574968
1.18303e-05	-0.001254482746586778
1.18305e-05	-0.0012381267431160591
1.18308e-05	-0.001216264656793536
1.18310e-05	-0.0011940905065762114
1.18313e-05	-0.001168268091027493
1.18315e-05	-0.001142238905635707
1.18318e-05	-0.0011130951794559392
1.18320e-05	-0.0010837749329159292
1.18323e-05	-0.0010524680786829698
1.18325e-05	-0.0010199763344383584
1.18328e-05	-0.000986587837163533
1.18330e-05	-0.000952526737997734
1.18333e-05	-0.0009179917221221253
1.18335e-05	-0.0008831795075656425
1.18337e-05	-0.000848286888185983
1.18340e-05	-0.0008135105539129871
1.18343e-05	-0.000779057379272271
1.18345e-05	-0.0007451677575665527
1.18348e-05	-0.000712105432470737
1.18350e-05	-0.0006801191700861244
1.18352e-05	-0.0006494418904308724
1.18355e-05	-0.0006203052818492987
1.18358e-05	-0.0005929408455752038
1.18360e-05	-0.0005675802387328919
1.18363e-05	-0.000545766743897582
1.18365e-05	-0.0005241481566998461
1.18368e-05	-0.000506646861319643
1.18370e-05	-0.0004923469865574398
1.18373e-05	-0.00048119460869586634
1.18375e-05	-0.000473199589911772
1.18378e-05	-0.0004683717075313188
1.18380e-05	-0.0004667207128985716
1.18383e-05	-0.00046828455963275026
1.18385e-05	-0.0004731634215609706
1.18388e-05	-0.0004814335583108013
1.18390e-05	-0.0004930443871791282
1.18393e-05	-0.0005078717084911801
1.18395e-05	-0.0005257864234495164
1.18398e-05	-0.0005466593141688774
1.18400e-05	-0.0005716440761200122
1.18403e-05	-0.0005968529118428907
1.18405e-05	-0.000627051788356904
1.18408e-05	-0.0006575334814587443
1.18410e-05	-0.0006925008789850503
1.18413e-05	-0.0007277225092267722
1.18415e-05	-0.0007673853989804651
1.18418e-05	-0.0008073000024807817
1.18420e-05	-0.0008472146059810982
1.18422e-05	-0.0008908866545052291
1.18425e-05	-0.0009347716607641141
1.18428e-05	-0.0009786566670229992
1.18430e-05	-0.0010244764637708287
1.18433e-05	-0.001070405917106531
1.18435e-05	-0.0011163353704422335
1.18437e-05	-0.0011619494402581886
1.18440e-05	-0.0012075456353326077
1.18443e-05	-0.001253141830407027
1.18445e-05	-0.0012968214499695868
1.18448e-05	-0.001340392445300102
1.18450e-05	-0.0013812394017826033
1.18453e-05	-0.001421931970073582
1.18455e-05	-0.0014575490046957527
1.18458e-05	-0.0014928783773178254
1.18460e-05	-0.0015282077499398981
1.18463e-05	-0.0015557809207874488
1.18465e-05	-0.001582914499532476
1.18468e-05	-0.0016100480782775034
1.18470e-05	-0.0016295679066537854
1.18473e-05	-0.0016486562165328898
1.18475e-05	-0.0016677445264119942
1.18478e-05	-0.0016786327546147134
1.18480e-05	-0.0016890562332851553
1.18483e-05	-0.0016994797119555972
1.18485e-05	-0.0017017637398521605
1.18488e-05	-0.001703586454546009
1.18490e-05	-0.0017054091692398573
1.18493e-05	-0.0016999617209205065
1.18495e-05	-0.0016941022273320723
1.18498e-05	-0.0016882427337436379
1.18500e-05	-0.0016754980154339348
1.18503e-05	-0.001662363068697738
1.18505e-05	-0.0016492281219615413
1.18507e-05	-0.0016311985243614969
1.18510e-05	-0.0016128915165122804
1.18513e-05	-0.0015913553897921953
1.18515e-05	-0.0015696362488603786
1.18518e-05	-0.0015451227247472437
1.18520e-05	-0.0015204508255924614
1.18522e-05	-0.0014934881359676651
1.18525e-05	-0.0014663956130261354
1.18528e-05	-0.0014377891169859076
1.18530e-05	-0.001409096814691832
1.18533e-05	-0.0013795988301631454
1.18535e-05	-0.0013500551826205495
1.18538e-05	-0.0013203331678499828
1.18540e-05	-0.0012906010439015505
1.18543e-05	-0.0012611393903325743
1.18545e-05	-0.0012321365052161827
1.18548e-05	-0.0012038312377659808
1.18550e-05	-0.0011764430303326716
1.18553e-05	-0.0011507971989005454
1.18555e-05	-0.0011252472953887174
1.18558e-05	-0.0011025772128498124
1.18560e-05	-0.0010800703476427065
1.18563e-05	-0.001061211527424026
1.18565e-05	-0.0010425594645609145
1.18568e-05	-0.0010293239704210473
1.18570e-05	-0.0010163954668556447
1.18573e-05	-0.0010034669632901544
1.18575e-05	-0.0009973732260203365
1.18578e-05	-0.0009916668573852641
1.18580e-05	-0.0009859604887501531
1.18583e-05	-0.0009861266692142178
1.18585e-05	-0.0009866256834912272
1.18588e-05	-0.000993017959059435
1.18590e-05	-0.0009997442423290894
1.18592e-05	-0.0010064705255986982
1.18595e-05	-0.0010197383727864415
1.18598e-05	-0.001033376971009969
1.18600e-05	-0.0010470155692334038
1.18603e-05	-0.0010665089973492796
1.18605e-05	-0.0010863342550206556
1.18607e-05	-0.0011061595126918974
1.18610e-05	-0.0011309374447435064
1.18613e-05	-0.0011559960755973978
1.18615e-05	-0.0011810547064512891
1.18618e-05	-0.0012098301842288829
1.18620e-05	-0.0012388163187952495
1.18623e-05	-0.0012678024533616162
1.18625e-05	-0.0012992299824747947
1.18628e-05	-0.0013307958805728463
1.18630e-05	-0.0013623617786708978
1.18633e-05	-0.0013948809150096536
1.18635e-05	-0.0014274540772772591
1.18638e-05	-0.0014600272395448644
1.18640e-05	-0.0014919339760173648
1.18643e-05	-0.001523802942003239
1.18645e-05	-0.0015556719079891134
1.18648e-05	-0.001585216921963333
1.18650e-05	-0.00161463022315059
1.18653e-05	-0.0016440435243378468
1.18655e-05	-0.0016701830505808407
1.18658e-05	-0.001696137031674903
1.18660e-05	-0.001717109124650045
1.18663e-05	-0.001737798863098614
1.18665e-05	-0.0017422115436783094
1.18668e-05	-0.0017692011897138986
1.18670e-05	-0.014990196833472455
1.18673e-05	-0.02171179538534684
1.18675e-05	-0.017489665188556224
1.18678e-05	-0.014624883242790026
1.18680e-05	-0.003925974959317924
1.18683e-05	0.002369797472656983
1.18685e-05	0.001202064743255244
1.18688e-05	0.0006244786290118209
1.18690e-05	-7.426434421815256e-05
1.18692e-05	-0.013298611729252145
1.18695e-05	-0.009505941518720327
1.18698e-05	-0.006002058490724336
1.18700e-05	-0.00027483382645561395
1.18703e-05	0.0037620770660906806
1.18705e-05	0.0028400018740464684
1.18708e-05	-0.00032018349160002906
1.18710e-05	-0.00493586421031747
1.18713e-05	-0.008123509684950835
1.18715e-05	-0.00657794312894056
1.18718e-05	-0.0033938686670020517
1.18720e-05	0.00017593648579940983
1.18723e-05	0.002694049814617958
1.18725e-05	0.0021116100029091784
1.18728e-05	0.00013186946811196668
1.18730e-05	-0.0027559357067500436
1.18733e-05	-0.00474649342730428
1.18735e-05	-0.0037704116730581496
1.18738e-05	-0.001767066128257847
1.18740e-05	0.00047816611882319773
1.18743e-05	0.002064399614679075
1.18745e-05	0.0017079073459945488
1.18748e-05	0.0004753424372087384
1.18750e-05	-0.0013271209095754846
1.18753e-05	-0.002568951274004088
1.18755e-05	-0.001954280455982651
1.18758e-05	-0.0006983072330873873
1.18760e-05	0.0007067578827425988
1.18763e-05	0.0016967387966291202
1.18765e-05	0.001468484771465643
1.18768e-05	0.0006914336329444482
1.18770e-05	-0.0004419980074695111
1.18773e-05	-0.0012236051917827462
1.18775e-05	-0.0008417741870437372
1.18777e-05	-5.781819906815037e-05
1.18780e-05	0.0008198812191532482
1.18783e-05	0.001437897138760726
1.18785e-05	0.0012931506961023935
1.18788e-05	0.0008049965108520879
1.18790e-05	9.39609174384114e-05
1.18793e-05	-0.00039636509574173976
1.18795e-05	-0.00015765768760320117
1.18798e-05	0.00033312719000744295
1.18800e-05	0.0008827808189365362
1.18803e-05	0.0012698976180461974
1.18805e-05	0.0011793553582377554
1.18808e-05	0.0008738456793061787
1.18810e-05	0.00042885955473080585
1.18813e-05	0.00012223934170032847
1.18815e-05	0.00027234896368796445
1.18818e-05	0.0005803737220300693
1.18820e-05	0.000925257193072857
1.18823e-05	0.0011682923957703761
1.18825e-05	0.0011120838724236167
1.18828e-05	0.0009211796582050372
1.18830e-05	0.0006428558309316446
1.18833e-05	0.0004511311917866775
1.18835e-05	0.000545390088780619
1.18838e-05	0.000738416533710819
1.18840e-05	0.0009543541099541463
1.18843e-05	0.0011062976332323294
1.18845e-05	0.0010705892150247697
1.18848e-05	0.0009502926898139427
1.18850e-05	0.0007750069787048051
1.18853e-05	0.0006537162230525019
1.18855e-05	0.0007112827127261308
1.18858e-05	0.000830402566649879
1.18860e-05	0.0009635145150931523
1.18862e-05	0.00105591773008426
1.18865e-05	0.0010293982841636552
1.18868e-05	0.0009476426181809909
1.18870e-05	0.0008288475621546057
1.18873e-05	0.0007413593839211703
1.18875e-05	0.0007635332416984536
1.18878e-05	0.000822031566301857
1.18880e-05	0.0008872082477909248
1.18883e-05	0.0009249477535663289
1.18885e-05	0.0008864098698991902
1.18888e-05	0.0008116410569017079
1.18890e-05	0.0007121907261996689
1.18893e-05	0.0006310192962565155
1.18895e-05	0.0006173526652575939
1.18898e-05	0.0006253964017507651
1.18900e-05	0.0006367272637014793
1.18903e-05	0.0006301242116050029
1.18905e-05	0.0005751450864640826
1.18908e-05	0.0004970265215243025
1.18910e-05	0.0004031530751505614
1.18913e-05	0.00032058354662103456
1.18915e-05	0.00028029881812087406
1.18918e-05	0.0002537590648647058
1.18920e-05	0.00022957157881888396
1.18923e-05	0.0001945922835762463
1.18925e-05	0.00012990241280233156
1.18928e-05	5.146045497735897e-05
1.18930e-05	-3.595847042632636e-05
1.18933e-05	-0.00011525636087067284
1.18935e-05	-0.00016688007115064522
1.18938e-05	-0.00020856023575198504
1.18940e-05	-0.0002472854196775094
1.18943e-05	-0.00029114052841615085
