Time(s)	Current(A)
1.05000e-05	0.0038020661301131037
1.05002e-05	0.003782997931293919
1.05005e-05	0.0037639297324746045
1.05008e-05	0.00374486153365529
1.05010e-05	0.0037257933348361053
1.05013e-05	0.003706725136016791
1.05015e-05	0.0036876569371974764
1.05017e-05	0.0036685887383782916
1.05020e-05	0.003649520539558977
1.05023e-05	0.0036304523407396628
1.05025e-05	0.003611384141920478
1.05028e-05	0.0035923159431011636
1.05030e-05	0.003573247744281849
1.05033e-05	0.003554179545462535
1.05035e-05	0.003535278299657965
1.05038e-05	0.003528054569633416
1.05040e-05	0.003520830839608867
1.05043e-05	0.0035136071095843674
1.05045e-05	0.0035063833795598185
1.05048e-05	0.0034991596495352697
1.05050e-05	0.00349193591951077
1.05053e-05	0.003484712189486221
1.05055e-05	0.003477488459461672
1.05058e-05	0.003470264729437172
1.05060e-05	0.0034776537814273354
1.05063e-05	0.003498854310481957
1.05065e-05	0.003520054839536435
1.05068e-05	0.003541255368591057
1.05070e-05	0.0035624558976456787
1.05073e-05	0.0035836564267001567
1.05075e-05	0.0036048569557547783
1.05078e-05	0.0036260574848094003
1.05080e-05	0.0036472580138638784
1.05083e-05	0.003668811090544542
1.05085e-05	0.0037150230838663184
1.05087e-05	0.0037612350771877817
1.05090e-05	0.003807447070509558
1.05093e-05	0.0038536590638313345
1.05095e-05	0.0038998710571527978
1.05098e-05	0.003946083050474574
1.05100e-05	0.00399229504379635
1.05102e-05	0.0040386507567424824
1.05105e-05	0.00409505892781881
1.05108e-05	0.004151467098895138
1.05110e-05	0.004207875269971083
1.05113e-05	0.00426428344104741
1.05115e-05	0.004320691612123738
1.05118e-05	0.004377099783200065
1.05120e-05	0.00443350795427601
1.05123e-05	0.004489763530947256
1.05125e-05	0.004535345903642494
1.05128e-05	0.004580928276337424
1.05130e-05	0.004626510649032662
1.05133e-05	0.004672093021727901
1.05135e-05	0.0047176753944228305
1.05138e-05	0.004763257767118069
1.05140e-05	0.004808840139813308
1.05143e-05	0.004854422512508237
1.05145e-05	0.004900004885203475
1.05148e-05	0.00494513206521272
1.05150e-05	0.004958420827633056
1.05153e-05	0.00497170959005348
1.05155e-05	0.004984998352473905
1.05158e-05	0.00499828711489424
1.05160e-05	0.005011575877314665
1.05163e-05	0.00502486463973509
1.05165e-05	0.0050381534021554245
1.05168e-05	0.005051442164575849
1.05170e-05	0.005064730926996275
1.05172e-05	0.005077570677457877
1.05175e-05	0.005059004320780105
1.05178e-05	0.0050404379641023345
1.05180e-05	0.0050218716074246885
1.05183e-05	0.005003305250746918
1.05185e-05	0.004984738894069146
1.05187e-05	0.004966172537391501
1.05190e-05	0.00494760618071373
1.05193e-05	0.004929039824035958
1.05195e-05	0.004910473467358313
1.05198e-05	0.004882767185786766
1.05200e-05	0.004846422175261438
1.05203e-05	0.00481007716473611
1.05205e-05	0.004773732154211029
1.05208e-05	0.0047373871436857005
1.05210e-05	0.004701042133160372
1.05213e-05	0.0046646971226352914
1.05215e-05	0.004628352112109963
1.05218e-05	0.004592007101584635
1.05220e-05	0.004555698348392747
1.05223e-05	0.004521925611604929
1.05225e-05	0.00448815287481711
1.05228e-05	0.004454380138029519
1.05230e-05	0.0044206074012417005
1.05233e-05	0.004386834664453882
1.05235e-05	0.004353061927666291
1.05238e-05	0.004319289190878472
1.05240e-05	0.004285516454090654
1.05243e-05	0.004251743717303064
1.05245e-05	0.004218238501226685
1.05248e-05	0.004203445000922463
1.05250e-05	0.004188651500618341
1.05253e-05	0.004173858000314119
1.05255e-05	0.004159064500009897
1.05257e-05	0.004144270999705775
1.05260e-05	0.0041294774994015526
1.05263e-05	0.004114683999097331
1.05265e-05	0.004099890498793209
1.05268e-05	0.004085096998488987
1.05270e-05	0.004070581276419867
1.05272e-05	0.0040754947318620794
1.05275e-05	0.004080408187304324
1.05278e-05	0.004085321642746569
1.05280e-05	0.00409023509818878
1.05283e-05	0.004095148553631025
1.05285e-05	0.004100062009073271
1.05288e-05	0.004104975464515515
1.05290e-05	0.004109888919957727
1.05293e-05	0.004114802375399971
1.05295e-05	0.0041197158308422166
1.05298e-05	0.004124629286284428
1.05300e-05	0.00413505020639208
1.05303e-05	0.00415067658442557
1.05305e-05	0.004166302962458955
1.05308e-05	0.004181929340492446
1.05310e-05	0.004197555718525936
1.05313e-05	0.004213182096559321
1.05315e-05	0.004228808474592811
1.05318e-05	0.004244434852626302
1.05320e-05	0.0042600612306596865
1.05323e-05	0.004275687608693177
1.05325e-05	0.004291313986726668
1.05328e-05	0.004306871796205516
1.05330e-05	0.0043176335833447635
1.05333e-05	0.004328395370484012
1.05335e-05	0.004339157157623187
1.05338e-05	0.0043499189447624344
1.05340e-05	0.004360680731901683
1.05342e-05	0.004371442519040858
1.05345e-05	0.004382204306180105
1.05348e-05	0.004392966093319354
1.05350e-05	0.004403727880458529
1.05353e-05	0.004414489667597776
1.05355e-05	0.004414058127551285
1.05357e-05	0.004403047056402973
1.05360e-05	0.004392035985254585
1.05363e-05	0.004381024914106199
1.05365e-05	0.004370013842957886
1.05368e-05	0.004359002771809499
1.05370e-05	0.004347991700661112
1.05373e-05	0.004336980629512725
1.05375e-05	0.004325969558364413
1.05378e-05	0.004314958487216025
1.05380e-05	0.004303643631824902
1.05383e-05	0.004271080610625551
1.05385e-05	0.00423851758942598
1.05388e-05	0.00420595456822641
1.05390e-05	0.004173391547027059
1.05393e-05	0.004140828525827488
1.05395e-05	0.004108265504627918
1.05398e-05	0.004075702483428568
1.05400e-05	0.0040431394622289975
1.05403e-05	0.004010455740397975
1.05405e-05	0.003969329622046238
1.05408e-05	0.003928203503694222
1.05410e-05	0.003887077385342206
1.05413e-05	0.003845951266990469
1.05415e-05	0.003804825148638453
1.05418e-05	0.003763699030286437
1.05420e-05	0.0037225729119347
1.05423e-05	0.0036814467935826845
1.05425e-05	0.003640403978132312
1.05427e-05	0.00360518777783402
1.05430e-05	0.003569971577535489
1.05433e-05	0.0035347553772369584
1.05435e-05	0.0034995391769386663
1.05438e-05	0.0034643229766401357
1.05440e-05	0.0034291067763416046
1.05442e-05	0.0033941866195974207
1.05445e-05	0.0033799732068633924
1.05448e-05	0.003365759794129364
1.05450e-05	0.003351546381395432
1.05453e-05	0.0033373329686614034
1.05455e-05	0.003323119555927375
1.05458e-05	0.003308906143193347
1.05460e-05	0.003294998794128413
1.05463e-05	0.003302499045262667
1.05465e-05	0.00330999929639692
1.05468e-05	0.0033176986749109487
1.05470e-05	0.0033393260029591473
1.05473e-05	0.003360953331007346
1.05475e-05	0.0033828953395748035
1.05478e-05	0.003426847653292258
1.05480e-05	0.003470799967009713
1.05483e-05	0.0035147522807268696
1.05485e-05	0.0035587045944443243
1.05488e-05	0.003602656908161779
1.05490e-05	0.0036466092218789357
1.05493e-05	0.0036905615355963903
1.05495e-05	0.0037348111538014137
1.05498e-05	0.003799855711942353
1.05500e-05	0.0038649002700837337
1.05503e-05	0.003929944828225115
1.05505e-05	0.003994989386366055
1.05508e-05	0.004060033944507435
1.05510e-05	0.004125078502648816
1.05512e-05	0.004190123060789755
1.05515e-05	0.004255185756430125
1.05518e-05	0.004321517078069799
1.05520e-05	0.004387848399709024
1.05523e-05	0.004454179721348698
1.05525e-05	0.004520511042988372
1.05527e-05	0.004586842364627597
1.05530e-05	0.0046531736862672705
1.05533e-05	0.004719259501102541
1.05535e-05	0.004768173360997508
1.05538e-05	0.004817087220892805
1.05540e-05	0.004866001080788103
1.05543e-05	0.0049149149406834
1.05545e-05	0.004963828800578366
1.05548e-05	0.005012742660473663
1.05550e-05	0.005061382352944735
1.05553e-05	0.005090845425562384
1.05555e-05	0.005120308498180232
1.05558e-05	0.005149771570798081
1.05560e-05	0.00517923464341573
1.05563e-05	0.005208697716033579
1.05565e-05	0.0052381607886514275
1.05568e-05	0.005267623861269077
1.05570e-05	0.005297086933886926
1.05573e-05	0.005326550006504774
1.05575e-05	0.005356013079122423
1.05578e-05	0.0053854761517402715
1.05580e-05	0.00541493922435812
1.05583e-05	0.00544440229697577
1.05585e-05	0.005473865369593618
1.05588e-05	0.005503159846982969
1.05590e-05	0.005520661943774913
1.05593e-05	0.005538164040566974
1.05595e-05	0.005555666137359036
1.05597e-05	0.005573168234150981
1.05600e-05	0.005590670330943043
1.05603e-05	0.005608172427735104
1.05605e-05	0.005625674524527048
1.05608e-05	0.0056431766213191105
1.05610e-05	0.005660678718111173
1.05612e-05	0.005678180814903116
1.05615e-05	0.005695682911695178
1.05618e-05	0.00571318500848724
1.05620e-05	0.005730687105279184
1.05623e-05	0.005748189202071246
1.05625e-05	0.005765598140897948
1.05628e-05	0.00577649115281703
1.05630e-05	0.005787384164736038
1.05633e-05	0.0057982771766551195
1.05635e-05	0.005809170188574201
1.05638e-05	0.005820063200493209
1.05640e-05	0.005830956212412291
1.05643e-05	0.005841849224331372
1.05645e-05	0.005851261083092372
1.05648e-05	0.005852895497332843
1.05650e-05	0.005854529911573312
1.05653e-05	0.0058561643258137714
1.05655e-05	0.005857798740054242
1.05658e-05	0.005859433154294711
1.05660e-05	0.0058610675685351705
1.05663e-05	0.00586270198277564
1.05665e-05	0.005862787125984052
1.05668e-05	0.004015529178342067
1.05670e-05	-0.0010933273557997758
1.05673e-05	-0.003852126813899082
1.05675e-05	-0.00347795920961379
1.05678e-05	-0.0012712188114542841
1.05680e-05	0.0026023040099677985
1.05682e-05	0.005138571904712178
1.05685e-05	0.005561491796742094
1.05688e-05	0.004258148913356062
1.05690e-05	0.001257751841731148
1.05693e-05	-0.0006159593976360815
1.05695e-05	-0.0004165750255032158
1.05697e-05	0.0010331800040712252
1.05700e-05	0.003413012181931772
1.05703e-05	0.005076987007349637
1.05705e-05	0.005367755729055657
1.05708e-05	0.004516247492350093
1.05710e-05	0.002751175182328018
1.05713e-05	0.001279487337790702
1.05715e-05	0.0013712949950168555
1.05718e-05	0.002384000579003482
1.05720e-05	0.003939153156674579
1.05723e-05	0.005249842546265597
1.05725e-05	0.0058466059394398475
1.05728e-05	0.005496277955693406
1.05730e-05	0.0044349266196232395
1.05733e-05	0.0034834698276117026
1.05735e-05	0.0031110201553776634
1.05738e-05	0.0035513830177361437
1.05740e-05	0.004527119979805372
1.05743e-05	0.005346255852306288
1.05745e-05	0.005719048296518875
1.05748e-05	0.005498882835921004
1.05750e-05	0.004833004724586566
1.05753e-05	0.00423541776650377
1.05755e-05	0.0039999876962945715
1.05758e-05	0.0042731704547065204
1.05760e-05	0.004881178688204461
1.05763e-05	0.005390587118578008
1.05765e-05	0.005619954375177584
1.05767e-05	0.00547750659905106
1.05770e-05	0.0050555417054334965
1.05773e-05	0.0046760748860093454
1.05775e-05	0.00452320375592694
1.05778e-05	0.004688674203955796
1.05780e-05	0.005063633573653731
1.05782e-05	0.005376608032114779
1.05785e-05	0.00551398426014596
1.05788e-05	0.00541832325524879
1.05790e-05	0.0051474876743369535
1.05793e-05	0.004903223069741581
1.05795e-05	0.004800867958768993
1.05798e-05	0.0048979052248128195
1.05800e-05	0.005126161721487738
1.05803e-05	0.005315609771538124
1.05805e-05	0.005395116282379164
1.05808e-05	0.005328739720260155
1.05810e-05	0.00515276455561096
1.05813e-05	0.00499359382191242
1.05815e-05	0.004923498333099475
1.05818e-05	0.004978500156984762
1.05820e-05	0.005115913504741981
1.05823e-05	0.005229256248077579
1.05825e-05	0.005274001416811226
1.05828e-05	0.00522766860968431
1.05830e-05	0.005113018326801425
1.05833e-05	0.005009258807838615
1.05835e-05	0.00496168229472565
1.05838e-05	0.004992872943863184
1.05840e-05	0.0050761114851901445
1.05843e-05	0.0051447436678709844
1.05845e-05	0.00517108032887336
1.05848e-05	0.005141517068506113
1.05850e-05	0.005070775459079763
1.05853e-05	0.005008582123244147
1.05855e-05	0.004983215757302034
1.05858e-05	0.005008724407752717
1.05860e-05	0.0050682714751428045
1.05863e-05	0.0051200086113350534
1.05865e-05	0.0051464967748306245
1.05867e-05	0.005139122785969912
1.05870e-05	0.005107015105351537
1.05873e-05	0.005081227074240706
1.05875e-05	0.005079376686653856
1.05878e-05	0.005110165170556611
1.05880e-05	0.005162947816970297
1.05883e-05	0.00521141514765489
1.05885e-05	0.005242674807119063
1.05888e-05	0.005249077416988922
1.05890e-05	0.0052539706666192105
1.05893e-05	0.005255240611853767
1.05895e-05	0.005273288771739082
1.05898e-05	0.005315406438192347
1.05900e-05	0.005358929129561898
1.05903e-05	0.005405219949579023
1.05905e-05	0.005438776666095637
1.05908e-05	0.005468636234008692
1.05910e-05	0.005483142747261546
1.05913e-05	0.005500458903670189
1.05915e-05	0.0055294425935146
1.05918e-05	0.005561409939216816
1.05920e-05	0.005605767436461889
1.05923e-05	0.005646818827929438
1.05925e-05	0.0056741410383009325
1.05928e-05	0.005701463248672427
1.05930e-05	0.0057276757421021954
1.05933e-05	0.0057492799423064095
1.05935e-05	0.005770884142510623
1.05938e-05	0.005794170209443637
1.05940e-05	0.005824440521425077
1.05943e-05	0.005851545769345146
1.05945e-05	0.00586550753650197
1.05948e-05	0.00587946930365889
1.05950e-05	0.005890832854674836
1.05952e-05	0.005891406859821655
1.05955e-05	0.0058919808649684794
1.05958e-05	0.005891604751424412
1.05960e-05	0.0058872831042373576
1.05963e-05	0.005882961457050273
1.05965e-05	0.005872914534053989
1.05968e-05	0.00583909240429953
1.05970e-05	0.0058052702745453
1.05973e-05	0.005771448144790841
1.05975e-05	0.005737626015036382
1.05978e-05	0.005703803885282153
1.05980e-05	0.005669981755527693
1.05983e-05	0.0056361596257732335
1.05985e-05	0.005602337496019004
1.05988e-05	0.005550036916513648
1.05990e-05	0.005489591616155417
1.05993e-05	0.005429146315797595
1.05995e-05	0.005368701015439363
1.05998e-05	0.005308255715081132
1.06000e-05	0.005247810414723311
1.06003e-05	0.005187365114365079
1.06005e-05	0.005126919814006848
1.06008e-05	0.0050644369836282096
1.06010e-05	0.004993492954322548
1.06013e-05	0.004922548925016885
1.06015e-05	0.004851604895711703
1.06018e-05	0.004780660866406041
1.06020e-05	0.004709716837100379
1.06023e-05	0.004638772807795196
1.06025e-05	0.0045698410565453255
1.06028e-05	0.00450926564103198
1.06030e-05	0.004448690225519046
1.06033e-05	0.004388114810005701
1.06035e-05	0.0043275393944923555
1.06037e-05	0.0042669639789794205
1.06040e-05	0.004206388563466076
1.06043e-05	0.0041493483529161665
1.06045e-05	0.00410698869781436
1.06048e-05	0.004064629042712265
1.06050e-05	0.004025197675103925
1.06053e-05	0.0039979265322536055
1.06055e-05	0.003970655389403471
1.06058e-05	0.003946618837370993
1.06060e-05	0.003936014488095515
1.06063e-05	0.003925410138820109
1.06065e-05	0.0039178474948212095
1.06068e-05	0.003922916062713137
1.06070e-05	0.00392798463060503
1.06073e-05	0.003936134697901304
1.06075e-05	0.003957081229147409
1.06078e-05	0.003978027760393373
1.06080e-05	0.004003402019457942
1.06083e-05	0.004047163190858489
1.06085e-05	0.00409092436225874
1.06088e-05	0.004134685533659287
1.06090e-05	0.004178446705059834
1.06093e-05	0.004222207876460084
1.06095e-05	0.004265969047860631
1.06098e-05	0.004309730219261178
1.06100e-05	0.004367358194619512
1.06103e-05	0.0044310982220670545
1.06105e-05	0.004494838249514596
1.06108e-05	0.004558578276961705
1.06110e-05	0.004622318304409247
1.06113e-05	0.0046860583318567885
1.06115e-05	0.004749798359303898
1.06118e-05	0.004813451628925561
1.06120e-05	0.004876744621537287
1.06122e-05	0.004940037614148584
1.06125e-05	0.00500333060676031
1.06128e-05	0.005066623599372036
1.06130e-05	0.005129916591983333
1.06133e-05	0.00519320958459506
1.06135e-05	0.0052565025772067855
1.06138e-05	0.00530286867626918
1.06140e-05	0.0053417739317654185
1.06143e-05	0.005380679187261921
1.06145e-05	0.005419584442758423
1.06148e-05	0.00545848969825466
1.06150e-05	0.005497394953751162
1.06153e-05	0.005536300209247664
1.06155e-05	0.0055664552359520475
1.06158e-05	0.0055602734108036065
1.06160e-05	0.0055540915856551664
1.06163e-05	0.005547909760506767
1.06165e-05	0.005541727935358327
1.06168e-05	0.005535546110209886
1.06170e-05	0.005529364285061487
1.06173e-05	0.005523182459913047
1.06175e-05	0.005517000634764606
1.06178e-05	0.005510818809616207
1.06180e-05	0.005473559346556406
1.06183e-05	0.005422601835818337
1.06185e-05	0.0053716443250806135
1.06188e-05	0.005320686814342544
1.06190e-05	0.005269729303604475
1.06193e-05	0.005218771792866751
1.06195e-05	0.005167814282128682
1.06198e-05	0.005116856771390613
1.06200e-05	0.0050658992606528895
1.06203e-05	0.0050109367910991685
1.06205e-05	0.0049393430312516294
1.06207e-05	0.004867749271404576
1.06210e-05	0.004796155511557037
1.06213e-05	0.004724561751709499
1.06215e-05	0.004652967991862445
1.06218e-05	0.0045813742320149065
1.06220e-05	0.004510453258450224
1.06222e-05	0.00444232614731803
1.06225e-05	0.004374199036185374
1.06228e-05	0.004306071925052718
1.06230e-05	0.004237944813920062
1.06233e-05	0.004169817702787868
1.06235e-05	0.0041016905916552125
1.06238e-05	0.004039687020869989
1.06240e-05	0.004003112519858136
1.06243e-05	0.003966538018846036
1.06245e-05	0.003929963517833936
1.06248e-05	0.0038933890168220842
1.06250e-05	0.003856814515809984
1.06253e-05	0.003820240014797884
1.06255e-05	0.0037836655137860322
1.06258e-05	0.0037470910127739322
1.06260e-05	0.003710516511761832
1.06263e-05	0.00367394201074998
1.06265e-05	0.003668981555901566
1.06268e-05	0.003677955580661449
1.06270e-05	0.003686929605421272
1.06273e-05	0.003695903630181155
1.06275e-05	0.003704877654941038
1.06278e-05	0.0037138516797008605
1.06280e-05	0.0037228257044607436
1.06283e-05	0.003731799729220627
1.06285e-05	0.0037407737539804494
1.06288e-05	0.0037497477787403325
1.06290e-05	0.003764435709252022
1.06292e-05	0.0038028516304052626
1.06295e-05	0.0038412675515587633
1.06298e-05	0.003879683472712264
1.06300e-05	0.003918099393865504
1.06303e-05	0.003956515315019005
1.06305e-05	0.003994931236172505
1.06307e-05	0.004033347157325746
1.06310e-05	0.00407330686508064
1.06313e-05	0.004119677416070745
1.06315e-05	0.00416604796706085
1.06318e-05	0.0042124185180506405
1.06320e-05	0.004258789069040745
1.06323e-05	0.00430515962003085
1.06325e-05	0.0043515301710206405
1.06328e-05	0.004397900722010745
1.06330e-05	0.004441317584746212
1.06333e-05	0.004472468741618553
1.06335e-05	0.0045036198984911065
1.06338e-05	0.00453477105536366
1.06340e-05	0.004565922212236001
1.06343e-05	0.004597073369108555
1.06345e-05	0.004628224525981108
1.06348e-05	0.00465937568285345
1.06350e-05	0.004690526839726003
1.06353e-05	0.004721677996598556
1.06355e-05	0.004746163079775251
1.06358e-05	0.004742966128773365
1.06360e-05	0.004739769177771478
1.06363e-05	0.004736572226769612
1.06365e-05	0.004733375275767725
1.06368e-05	0.004730178324765838
1.06370e-05	0.004726981373763974
1.06373e-05	0.004723784422762087
1.06375e-05	0.0047205874717601995
1.06377e-05	0.004717390520758334
1.06380e-05	0.004708488167805325
1.06383e-05	0.004675893137718443
1.06385e-05	0.004643298107631782
1.06388e-05	0.0046107030775449
1.06390e-05	0.0045781080474580176
1.06392e-05	0.004545513017371357
1.06395e-05	0.004512917987284475
1.06398e-05	0.004480322957197593
1.06400e-05	0.004447727927110711
1.06403e-05	0.004405830343301752
1.06405e-05	0.004359832485692536
1.06408e-05	0.00431383462808332
1.06410e-05	0.004267836770474416
1.06413e-05	0.0042218389128651996
1.06415e-05	0.004175841055255984
1.06418e-05	0.0041298431976470795
1.06420e-05	0.004083845340037864
1.06423e-05	0.004038823885407933
1.06425e-05	0.003997857114522557
1.06428e-05	0.003956890343636902
1.06430e-05	0.0039159235727512474
1.06433e-05	0.0038749568018658707
1.06435e-05	0.0038339900309802164
1.06438e-05	0.003793023260094562
1.06440e-05	0.003752056489209185
1.06443e-05	0.0037110897183235307
1.06445e-05	0.0036867022921509606
1.06448e-05	0.0036696225209286257
1.06450e-05	0.0036525427497061747
1.06453e-05	0.003635462978483724
1.06455e-05	0.0036183832072613892
1.06458e-05	0.0036013034360389386
1.06460e-05	0.0035842236648164875
1.06462e-05	0.0035671438935941527
1.06465e-05	0.0035561375493877653
1.06468e-05	0.003570352170623703
1.06470e-05	0.003584566791859544
1.06473e-05	0.003598781413095482
1.06475e-05	0.0036129960343314195
1.06477e-05	0.0036272106555672607
1.06480e-05	0.003641425276803198
1.06483e-05	0.003655639898039136
1.06485e-05	0.0036698545192750736
1.06488e-05	0.003688686132930384
1.06490e-05	0.0037266906132327467
1.06493e-05	0.003764695093535109
1.06495e-05	0.003802699573837214
1.06498e-05	0.0038407040541395764
1.06500e-05	0.003878708534441939
1.06503e-05	0.003916713014744044
1.06505e-05	0.003954717495046407
