Time(s)	Current(A)
8.75000e-06	-0.011575807381241688
8.75025e-06	-0.011607245106070195
8.75050e-06	-0.011638682830898915
8.75075e-06	-0.011670120555727635
8.75100e-06	-0.011701558280556142
8.75125e-06	-0.011731696754282912
8.75150e-06	-0.011760287426001033
8.75175e-06	-0.011788878097719153
8.75200e-06	-0.01181329929400573
8.75225e-06	-0.01183275338082603
8.75250e-06	-0.011852207467646328
8.75275e-06	-0.011871661554466496
8.75300e-06	-0.011891115641286795
8.75325e-06	-0.011910569728107095
8.75350e-06	-0.011930023814927262
8.75375e-06	-0.01194947790174756
8.75400e-06	-0.01196893198856786
8.75425e-06	-0.011982518738069046
8.75450e-06	-0.011989115709786191
8.75475e-06	-0.011995712681503337
8.75500e-06	-0.012002309653220439
8.75525e-06	-0.012008906624937584
8.75550e-06	-0.01201550359665473
8.75575e-06	-0.012022100568371831
8.75600e-06	-0.012028697540088977
8.75625e-06	-0.012035294511806122
8.75650e-06	-0.012037519562358392
8.75675e-06	-0.012034536329191325
8.75700e-06	-0.012031553096024257
8.75725e-06	-0.01202856986285721
8.75750e-06	-0.012025586629690142
8.75775e-06	-0.012022603396523075
8.75800e-06	-0.012019620163356027
8.75825e-06	-0.01201663693018896
8.75850e-06	-0.01201365369702189
8.75875e-06	-0.012008354639552434
8.75900e-06	-0.012000296733156569
8.75925e-06	-0.011992238826760704
8.75950e-06	-0.011984180920364894
8.75975e-06	-0.011976123013969029
8.76000e-06	-0.011968065107573164
8.76025e-06	-0.011960007201177299
8.76050e-06	-0.011951949294781487
8.76075e-06	-0.011943891388385622
8.76100e-06	-0.011935581640819194
8.76125e-06	-0.01192697187405779
8.76150e-06	-0.011918362107296328
8.76175e-06	-0.011909752340534867
8.76200e-06	-0.011901142573773463
8.76225e-06	-0.011892532807012001
8.76250e-06	-0.011884482634826034
8.76275e-06	-0.011877099109454533
8.76300e-06	-0.011869613794538048
8.76325e-06	-0.011862007217409876
8.76350e-06	-0.011852891222457846
8.76375e-06	-0.011841977053205928
8.76400e-06	-0.011831062883954009
8.76425e-06	-0.01181846468920378
8.76450e-06	-0.011803860309470376
8.76475e-06	-0.011789255929736973
8.76500e-06	-0.011772874447635416
8.76525e-06	-0.011754375897776686
8.76550e-06	-0.011735877347917957
8.76575e-06	-0.011714556741364911
8.76600e-06	-0.011689874209610736
8.76625e-06	-0.011665191677856561
8.76650e-06	-0.011640509146102552
8.76675e-06	-0.011615826614348377
8.76700e-06	-0.011585505350891508
8.76725e-06	-0.011554926719397935
8.76750e-06	-0.011524348087904155
8.76775e-06	-0.011493769456410374
8.76800e-06	-0.011461266339032206
8.76825e-06	-0.01142647057544028
8.76850e-06	-0.011391674811848355
8.76875e-06	-0.011356203143011018
8.76900e-06	-0.011319926266084843
8.76925e-06	-0.01128334805810477
8.76950e-06	-0.011246224719733173
8.76975e-06	-0.0112087750637135
8.77000e-06	-0.011171194054304027
8.77025e-06	-0.011133696320705704
8.77050e-06	-0.011096495298399364
8.77075e-06	-0.011059803247626019
8.77100e-06	-0.011023802840640749
8.77125e-06	-0.010988606294404945
8.77150e-06	-0.01095430614617475
8.77175e-06	-0.010921059268388865
8.77200e-06	-0.010889078970879186
8.77225e-06	-0.010858590977411375
8.77250e-06	-0.010829821255668243
8.77275e-06	-0.010802987879262376
8.77300e-06	-0.01077818189969602
8.77325e-06	-0.010755192291017372
8.77350e-06	-0.010733671204272734
8.77375e-06	-0.010713473563868573
8.77400e-06	-0.010694659809704271
8.77425e-06	-0.01067733755019006
8.77450e-06	-0.010662014032960548
8.77475e-06	-0.010648067943066969
8.77500e-06	-0.010635612358117105
8.77525e-06	-0.010624932416492702
8.77550e-06	-0.010615653657184133
8.77575e-06	-0.010608044130867859
8.77600e-06	-0.010600434604551534
8.77625e-06	-0.010595051981306057
8.77650e-06	-0.01059232227483987
8.77675e-06	-0.010589592568373664
8.77700e-06	-0.01058686286190746
8.77725e-06	-0.010584133155441254
8.77750e-06	-0.010583570567511545
8.77775e-06	-0.010585589674853318
8.77800e-06	-0.01058760878219509
8.77825e-06	-0.010589627889536848
8.77850e-06	-0.01059164699687862
8.77875e-06	-0.01059495813017665
8.77900e-06	-0.010599808458145215
8.77925e-06	-0.010604658786113812
8.77950e-06	-0.01061003385795762
8.77975e-06	-0.010616034058864968
8.78000e-06	-0.010622034259772357
8.78025e-06	-0.010628301649380782
8.78050e-06	-0.010634887341746701
8.78075e-06	-0.010641473034112666
8.78100e-06	-0.010648098323107442
8.78125e-06	-0.01065477078369323
8.78150e-06	-0.010661236477625218
8.78175e-06	-0.0106674558497785
8.78200e-06	-0.010672417861889388
8.78225e-06	-0.010675881976944102
8.78250e-06	-0.010679346091998814
8.78275e-06	-0.010682810207053504
8.78300e-06	-0.010686274322108218
8.78325e-06	-0.01068973843716293
8.78350e-06	-0.01069320255221762
8.78375e-06	-0.010696666667272333
8.78400e-06	-0.010700130782327046
8.78425e-06	-0.010703594897381735
8.78450e-06	-0.010707059012436449
8.78475e-06	-0.010710523127491161
8.78500e-06	-0.010710550341313116
8.78525e-06	-0.010710420685013815
8.78550e-06	-0.010710291028714514
8.78575e-06	-0.010710161372415214
8.78600e-06	-0.010710031716115913
8.78625e-06	-0.010709902059816612
8.78650e-06	-0.010709772403517311
8.78675e-06	-0.010709642747218012
8.78700e-06	-0.01070951309091871
8.78725e-06	-0.01070938343461941
8.78750e-06	-0.01070925377832011
8.78775e-06	-0.010708231635768286
8.78800e-06	-0.010706146271477639
8.78825e-06	-0.010704060907187007
8.78850e-06	-0.01070197554289636
8.78875e-06	-0.010699890178605714
8.78900e-06	-0.010697804814315082
8.78925e-06	-0.010695719450024435
8.78950e-06	-0.01069363408573379
8.78975e-06	-0.010691548721443157
8.79000e-06	-0.010689463357152512
8.79025e-06	-0.010687377992861865
8.79050e-06	-0.010684737189902935
8.79075e-06	-0.010682071035115282
8.79100e-06	-0.010679404880327627
8.79125e-06	-0.01067673872553999
8.79150e-06	-0.010674072570752337
8.79175e-06	-0.010671406415964684
8.79200e-06	-0.010668740261177048
8.79225e-06	-0.010666074106389393
8.79250e-06	-0.01066340795160174
8.79275e-06	-0.010660741796814104
8.79300e-06	-0.010657942640664065
8.79325e-06	-0.01065498503956386
8.79350e-06	-0.010652027438463673
8.79375e-06	-0.010649069837363466
8.79400e-06	-0.01064611223626326
8.79425e-06	-0.010643154635163054
8.79450e-06	-0.010640197034062868
8.79475e-06	-0.01063723943296266
8.79500e-06	-0.010634281831862455
8.79525e-06	-0.010631324230762268
8.79550e-06	-0.010627916630621903
8.79575e-06	-0.010623972945179694
8.79600e-06	-0.01062002925973751
8.79625e-06	-0.010616085574295301
8.79650e-06	-0.010612141888853092
8.79675e-06	-0.01060819820341091
8.79700e-06	-0.010604254517968701
8.79725e-06	-0.010600310832526492
8.79750e-06	-0.010596367147084309
8.79775e-06	-0.0105924234616421
8.79800e-06	-0.010588173132539652
8.79825e-06	-0.010583557497859889
8.79850e-06	-0.010578941863180095
8.79875e-06	-0.0105743262285003
8.79900e-06	-0.010569710593820537
8.79925e-06	-0.010565094959140743
8.79950e-06	-0.010560479324460949
8.79975e-06	-0.010555863689781186
8.80000e-06	-0.010551248055101391
8.80025e-06	-0.010546732594580782
8.80050e-06	-0.010542221706298822
8.80075e-06	-0.010537710818016832
8.80100e-06	-0.010533199929734841
8.80125e-06	-0.010528689041452882
8.80150e-06	-0.010524178153170891
8.80175e-06	-0.0105196672648889
8.80200e-06	-0.010515156376606941
8.80225e-06	-0.010510826341958147
8.80250e-06	-0.01050677423507859
8.80275e-06	-0.010502871782873669
8.80300e-06	-0.010499248502061156
8.80325e-06	-0.010496273070787241
8.80350e-06	-0.010494372895852401
8.80375e-06	-0.010494014518197304
8.80400e-06	-0.010494680413838154
8.80425e-06	-0.010496403730721703
8.80450e-06	-0.010499386756928186
8.80475e-06	-0.010503656000640377
8.80500e-06	-0.010509457519398527
8.80525e-06	-0.010515259038156638
8.80550e-06	-0.010523582840918663
8.80575e-06	-0.010534911448716286
8.80600e-06	-0.01054624005651383
8.80625e-06	-0.010557568664311453
8.80650e-06	-0.010568897272109076
8.80675e-06	-0.010582866202948392
8.80700e-06	-0.010599980559108556
8.80725e-06	-0.01061709491526872
8.80750e-06	-0.010634209271428767
8.80775e-06	-0.010651323627588931
8.80800e-06	-0.010670531689143099
8.80825e-06	-0.010692233988658359
8.80850e-06	-0.010713936288173765
8.80875e-06	-0.010735638587689172
8.80900e-06	-0.01075734088720443
8.80925e-06	-0.010779043186719838
8.80950e-06	-0.010801445050288839
8.80975e-06	-0.010824680306761906
8.81000e-06	-0.010847915563235128
8.81025e-06	-0.010871150819708351
8.81050e-06	-0.010894386076181418
8.81075e-06	-0.01091762133265464
8.81100e-06	-0.010940123591069299
8.81125e-06	-0.010961752626542021
8.81150e-06	-0.010983381662014891
8.81175e-06	-0.011002468508917654
8.81200e-06	-0.011018526838410462
8.81225e-06	-0.01103458516790316
8.81250e-06	-0.011050643497395967
8.81275e-06	-0.011066701826888774
8.81300e-06	-0.011082760156381473
8.81325e-06	-0.01109881848587428
8.81350e-06	-0.011114876815367087
8.81375e-06	-0.011127756612256283
8.81400e-06	-0.011136849813044185
8.81425e-06	-0.011145943013832087
8.81450e-06	-0.011155036214619928
8.81475e-06	-0.01116412941540783
8.81500e-06	-0.011173222616195732
8.81525e-06	-0.011182315816983571
8.81550e-06	-0.011191409017771473
8.81575e-06	-0.01119743052050957
8.81600e-06	-0.011199792699493068
8.81625e-06	-0.011202154878476582
8.81650e-06	-0.011204517057460095
8.81675e-06	-0.011206879236443592
8.81700e-06	-0.011209241415427106
8.81725e-06	-0.011211603594410618
8.81750e-06	-0.011213965773394117
8.81775e-06	-0.01121632795237763
8.81800e-06	-0.011218690131361144
8.81825e-06	-0.011221052310344641
8.81850e-06	-0.011223414489328155
8.81875e-06	-0.011225776668311668
8.81900e-06	-0.011228138847295167
8.81925e-06	-0.01123050102627868
8.81950e-06	-0.011232863205262194
8.81975e-06	-0.01123522538424569
8.82000e-06	-0.011237587563229205
8.82025e-06	-0.011239949742212717
8.82050e-06	-0.011242311921196232
8.82075e-06	-0.011244674100179729
8.82100e-06	-0.011247036279163243
8.82125e-06	-0.011249398458146756
8.82150e-06	-0.011251760637130253
8.82175e-06	-0.011254122816113767
8.82200e-06	-0.01125648499509728
8.82225e-06	-0.011258847174080778
8.82250e-06	-0.01125997078744045
8.82275e-06	-0.011259617999937882
8.82300e-06	-0.011259109531323065
8.82325e-06	-0.03376409362713299
8.82350e-06	-0.04291314632958834
8.82375e-06	-0.032192438723378666
8.82400e-06	-0.025385716098575782
8.82425e-06	-0.0086605111878181
8.82450e-06	0.0029861783757134035
8.82475e-06	0.00229921332956465
8.82500e-06	-0.005624562356194555
8.82525e-06	-0.0181845287061818
8.82550e-06	-0.025212087158430076
8.82575e-06	-0.022916634117624003
8.82600e-06	-0.015846842607650725
8.82625e-06	-0.006395058075001885
8.82650e-06	-0.000760514832895496
8.82675e-06	-0.00149933826506521
8.82700e-06	-0.0066186166243078805
8.82725e-06	-0.014591145222414429
8.82750e-06	-0.019064139598276932
8.82775e-06	-0.017674726864096664
8.82800e-06	-0.013279982035967475
8.82825e-06	-0.00738358337235987
8.82850e-06	-0.003871958486478929
8.82875e-06	-0.004348162800075112
8.82900e-06	-0.007565008408454907
8.82925e-06	-0.012566650314529247
8.82950e-06	-0.0153744221070053
8.82975e-06	-0.014508971946711694
8.83000e-06	-0.01176056590477748
8.83025e-06	-0.008071488383232506
8.83050e-06	-0.005876358668227033
8.83075e-06	-0.006179298856345097
8.83100e-06	-0.008199005638030601
8.83125e-06	-0.01133671768134973
8.83150e-06	-0.013100311421587229
8.83175e-06	-0.012563379131994807
8.83200e-06	-0.01084758270570664
8.83225e-06	-0.00854332826415395
8.83250e-06	-0.0071757190692137126
8.83275e-06	-0.0073736967273432315
8.83300e-06	-0.008647873531832146
8.83325e-06	-0.010623370830605643
8.83350e-06	-0.011739384966449848
8.83375e-06	-0.011415792467353659
8.83400e-06	-0.010355239062519771
8.83425e-06	-0.008927515255533931
8.83450e-06	-0.008087843743474474
8.83475e-06	-0.00823003060370553
8.83500e-06	-0.009047358334389478
8.83525e-06	-0.010304861684315438
8.83550e-06	-0.011024767431867945
8.83575e-06	-0.010843662180360229
8.83600e-06	-0.010201652471523144
8.83625e-06	-0.009330314952720322
8.83650e-06	-0.008827900823450559
8.83675e-06	-0.008940952832761275
8.83700e-06	-0.009477203160538643
8.83725e-06	-0.010289344907722694
8.83750e-06	-0.010764813568492067
8.83775e-06	-0.010675914747751687
8.83800e-06	-0.010298276040883476
8.83825e-06	-0.009776882971506477
8.83850e-06	-0.009486382787540278
8.83875e-06	-0.009581086673700695
8.83900e-06	-0.0099404351508642
8.83925e-06	-0.01047204130324602
8.83950e-06	-0.01079210270754673
8.83975e-06	-0.010757923698376273
8.84000e-06	-0.010542087656954333
8.84025e-06	-0.01023533049113565
8.84050e-06	-0.010072233608346307
8.84075e-06	-0.010149345056808898
8.84100e-06	-0.01039103252922552
8.84125e-06	-0.010739317882370146
8.84150e-06	-0.010953693254788389
8.84175e-06	-0.01094469615857356
8.84200e-06	-0.010820351820861523
8.84225e-06	-0.010637409543559259
8.84250e-06	-0.010542714526778038
8.84275e-06	-0.010596637415210147
8.84300e-06	-0.010751807146489368
8.84325e-06	-0.010972176022019426
8.84350e-06	-0.011107485633981035
8.84375e-06	-0.011101948092275422
8.84400e-06	-0.011023324652730242
8.84425e-06	-0.010907214154383279
8.84450e-06	-0.01084564502564462
8.84475e-06	-0.010876473616734881
8.84500e-06	-0.010970064755915793
8.84525e-06	-0.011103879861460513
8.84550e-06	-0.011183843477643955
8.84575e-06	-0.011175062506463277
8.84600e-06	-0.011120033771772774
8.84625e-06	-0.011041105485771157
8.84650e-06	-0.010995969671358274
8.84675e-06	-0.011008379832922958
8.84700e-06	-0.011059814562499519
8.84725e-06	-0.011136197524617437
8.84750e-06	-0.011178645376338229
8.84775e-06	-0.011165351113057033
8.84800e-06	-0.011122983639994989
8.84825e-06	-0.011065588668429355
8.84850e-06	-0.011029349761702016
8.84875e-06	-0.011029188323437408
8.84900e-06	-0.011057951994081609
8.84925e-06	-0.01109607614933465
8.84950e-06	-0.011112648629119561
8.84975e-06	-0.011096944567939124
8.85000e-06	-0.011060580352123414
8.85025e-06	-0.011019022876198782
8.85050e-06	-0.01099134343449619
8.85075e-06	-0.01098516055296697
8.85100e-06	-0.010993355873323441
8.85125e-06	-0.0110052712143431
8.85150e-06	-0.011017186555362676
8.85175e-06	-0.011008045071893928
8.85200e-06	-0.01098513723614561
8.85225e-06	-0.010961043921140416
8.85250e-06	-0.01093695060613506
8.85275e-06	-0.010928265792301033
8.85300e-06	-0.010932791358492441
8.85325e-06	-0.010939915044865692
8.85350e-06	-0.010947038731238942
8.85375e-06	-0.010940823948012459
8.85400e-06	-0.010925640830549796
8.85425e-06	-0.010909569928202195
8.85450e-06	-0.010893499025854594
8.85475e-06	-0.010886841395519473
8.85500e-06	-0.010888123194194034
8.85525e-06	-0.010890919955885611
8.85550e-06	-0.010893716717577169
8.85575e-06	-0.01088798067588939
8.85600e-06	-0.010876386873684762
8.85625e-06	-0.010864158608280116
8.85650e-06	-0.010851930342875387
8.85675e-06	-0.01084548244107388
8.85700e-06	-0.01084386124299049
8.85725e-06	-0.010843143503726317
8.85750e-06	-0.010842425764462146
8.85775e-06	-0.010836305576897614
8.85800e-06	-0.010826464466853692
8.85825e-06	-0.010816214951479167
8.85850e-06	-0.010805965436104712
8.85875e-06	-0.01079934062663695
8.85900e-06	-0.010795779803398482
8.85925e-06	-0.010792806090417748
8.85950e-06	-0.010789832377436994
8.85975e-06	-0.01078323175787799
8.86000e-06	-0.010774630062578871
8.86025e-06	-0.010767648141476845
8.86050e-06	-0.010761559899542052
8.86075e-06	-0.010755471657607301
8.86100e-06	-0.010749383415672508
8.86125e-06	-0.010743295173737715
8.86150e-06	-0.010737359738424644
8.86175e-06	-0.01073150861121735
8.86200e-06	-0.010725657484010056
8.86225e-06	-0.0107198063568028
8.86250e-06	-0.010713955229595505
8.86275e-06	-0.010710337708572935
8.86300e-06	-0.010707952536675659
8.86325e-06	-0.010705567364778398
8.86350e-06	-0.010703182192881121
8.86375e-06	-0.010700797020983845
8.86400e-06	-0.010698411849086584
8.86425e-06	-0.010696026677189307
8.86450e-06	-0.010693641505292029
8.86475e-06	-0.010691897765132708
8.86500e-06	-0.01069395335840593
8.86525e-06	-0.010696008951679152
8.86550e-06	-0.010698064544952361
8.86575e-06	-0.010700120138225582
8.86600e-06	-0.010702175731498806
8.86625e-06	-0.010704231324772013
8.86650e-06	-0.010706286918045236
8.86675e-06	-0.010708342511318457
8.86700e-06	-0.010713353767155992
8.86725e-06	-0.010719995752797577
8.86750e-06	-0.010726637738439163
8.86775e-06	-0.010733279724080703
8.86800e-06	-0.010739921709722289
8.86825e-06	-0.010746563695363875
8.86850e-06	-0.010753205681005414
8.86875e-06	-0.010759847666647
8.86900e-06	-0.010766489652288585
8.86925e-06	-0.010774099599924378
8.86950e-06	-0.010782243601918247
8.86975e-06	-0.010790387603912115
8.87000e-06	-0.010798531605905928
8.87025e-06	-0.010806675607899796
8.87050e-06	-0.010814819609893663
8.87075e-06	-0.010822963611887476
8.87100e-06	-0.010831107613881345
8.87125e-06	-0.010839251615875213
8.87150e-06	-0.010845614635890649
8.87175e-06	-0.010850995033455105
8.87200e-06	-0.0108563754310196
8.87225e-06	-0.010861755828584094
8.87250e-06	-0.010867136226148552
8.87275e-06	-0.010872516623713047
8.87300e-06	-0.01087789702127754
8.87325e-06	-0.010883277418841998
8.87350e-06	-0.010888657816406492
8.87375e-06	-0.01089324017383454
8.87400e-06	-0.010893095573750589
8.87425e-06	-0.010892950973666635
8.87450e-06	-0.010892806373582682
8.87475e-06	-0.010892661773498728
8.87500e-06	-0.010892517173414775
8.87525e-06	-0.010892372573330821
8.87550e-06	-0.01089222797324687
8.87575e-06	-0.010892083373162916
8.87600e-06	-0.010891938773078962
8.87625e-06	-0.010888516667757146
8.87650e-06	-0.010883286262144149
8.87675e-06	-0.010878055856531154
8.87700e-06	-0.010872825450918194
8.87725e-06	-0.010867595045305198
8.87750e-06	-0.010862364639692201
8.87775e-06	-0.010857134234079241
8.87800e-06	-0.010851903828466247
8.87825e-06	-0.01084667342285325
8.87850e-06	-0.01084105417835068
8.87875e-06	-0.010833131760327271
8.87900e-06	-0.01082520934230386
8.87925e-06	-0.010817286924280503
8.87950e-06	-0.010809364506257092
8.87975e-06	-0.010801442088233682
8.88000e-06	-0.01079351967021027
8.88025e-06	-0.010785597252186915
8.88050e-06	-0.010777674834163503
8.88075e-06	-0.010769752416140093
8.88100e-06	-0.010761787163995314
8.88125e-06	-0.010753798278950262
8.88150e-06	-0.01074580939390521
8.88175e-06	-0.010737929586846903
8.88200e-06	-0.010730695871363783
8.88225e-06	-0.010723462155880662
8.88250e-06	-0.010716228440397591
8.88275e-06	-0.010709472156294175
8.88300e-06	-0.010702979285744813
8.88325e-06	-0.010696486415195496
8.88350e-06	-0.010688550904493303
8.88375e-06	-0.010679819444915424
8.88400e-06	-0.010671087985337606
8.88425e-06	-0.010660690817548333
8.88450e-06	-0.01064937462738504
8.88475e-06	-0.010638058437221822
8.88500e-06	-0.010624082962977613
8.88525e-06	-0.010608640280039472
8.88550e-06	-0.010593197597101433
8.88575e-06	-0.01057775491416329
8.88600e-06	-0.01056231223122515
8.88625e-06	-0.010546052291482587
8.88650e-06	-0.010524951569906588
8.88675e-06	-0.010503850848330592
8.88700e-06	-0.010482750126754738
8.88725e-06	-0.010461649405178741
8.88750e-06	-0.010440548683602743
8.88775e-06	-0.010416772515439113
8.88800e-06	-0.010391520221229845
8.88825e-06	-0.010366267927020577
8.88850e-06	-0.010341015632811307
8.88875e-06	-0.010315499436665689
8.88900e-06	-0.010288420094525597
8.88925e-06	-0.010261340752385505
8.88950e-06	-0.010234261410245596
8.88975e-06	-0.010207182068105504
8.89000e-06	-0.01017984958206398
8.89025e-06	-0.010152377428758158
8.89050e-06	-0.010125124342289927
8.89075e-06	-0.010098271807056268
8.89100e-06	-0.010071927090665971
8.89125e-06	-0.010046166334075854
8.89150e-06	-0.010021052287698527
8.89175e-06	-0.009996695219943962
8.89200e-06	-0.009973249647488554
8.89225e-06	-0.009950878945018284
8.89250e-06	-0.009929745762844394
8.89275e-06	-0.009910013682600268
8.89300e-06	-0.009891853819256594
8.89325e-06	-0.009875441261457505
8.89350e-06	-0.009860906084113016
8.89375e-06	-0.009848312714222209
8.89400e-06	-0.00983768985727243
8.89425e-06	-0.009829708631907063
8.89450e-06	-0.009822796821419531
8.89475e-06	-0.009818518014267048
8.89500e-06	-0.009815691915914368
8.89525e-06	-0.009816215339508098
8.89550e-06	-0.009818586797223918
8.89575e-06	-0.009820958254939751
8.89600e-06	-0.009828269619831971
8.89625e-06	-0.009838306483218548
8.89650e-06	-0.009848343346605193
8.89675e-06	-0.009858380209991838
8.89700e-06	-0.009868417073378483
8.89725e-06	-0.009883587783112638
8.89750e-06	-0.009901590993538014
