Time(s)	Current(A)
6.00000e-06	0.0005934059572170335
6.00025e-06	0.0005950191986124192
6.00050e-06	0.0005904824000946303
6.00075e-06	0.0005796635621759578
6.00100e-06	0.0005625576684714601
6.00125e-06	0.0005393284510215564
6.00150e-06	0.0005102036578612005
6.00175e-06	0.000475412791415902
6.00200e-06	0.00043518542789121393
6.00225e-06	0.00038974002605183557
6.00250e-06	0.00033925753107483193
6.00275e-06	0.0002839055023719029
6.00300e-06	0.00022393107055633293
6.00325e-06	0.00015968697310728047
6.00350e-06	9.156611671531326e-05
6.00375e-06	1.9962434910058667e-05
6.00400e-06	-5.473015475500435e-05
6.00425e-06	-0.00013212467534143022
6.00450e-06	-0.00021185766336785384
6.00475e-06	-0.00029387767875061144
6.00500e-06	-0.0003772321260204236
6.00525e-06	-0.000461351551004434
6.00550e-06	-0.0005463857452516102
6.00575e-06	-0.0006314199394987865
6.00600e-06	-0.000715902032496778
6.00625e-06	-0.0007997239163875558
6.00650e-06	-0.0008820803444354998
6.00675e-06	-0.000962684363312102
6.00700e-06	-0.001040898257043183
6.00725e-06	-0.0011162540112770796
6.00750e-06	-0.0011882050409962308
6.00775e-06	-0.0012560846614700627
6.00800e-06	-0.0013196147151624264
6.00825e-06	-0.0013779435062182548
6.00850e-06	-0.0014325331946104217
6.00875e-06	-0.0014826516204715925
6.00900e-06	-0.001530365699380035
6.00925e-06	-0.0015752046321885235
6.00950e-06	-0.001616447060361108
6.00975e-06	-0.0016533887463853767
6.01000e-06	-0.001690330432409645
6.01025e-06	-0.001722614964755297
6.01050e-06	-0.0017493304184694294
6.01075e-06	-0.0017760458721835617
6.01100e-06	-0.001799679784110491
6.01125e-06	-0.0018196287524638616
6.01150e-06	-0.0018395777208172325
6.01175e-06	-0.001856233591925532
6.01200e-06	-0.0018689515389789444
6.01225e-06	-0.0018816694860324002
6.01250e-06	-0.001889872117524459
6.01275e-06	-0.0018926752820587298
6.01300e-06	-0.00189547844659301
6.01325e-06	-0.0018982816111272809
6.01350e-06	-0.0019010847756615516
6.01375e-06	-0.0019038879401958317
6.01400e-06	-0.0019066911047301025
6.01425e-06	-0.0019094942692643732
6.01450e-06	-0.0019084566180416391
6.01475e-06	-0.0019028260745861576
6.01500e-06	-0.001897195531130676
6.01525e-06	-0.0018915649876751755
6.01550e-06	-0.001885934444219694
6.01575e-06	-0.0018803039007642124
6.01600e-06	-0.0018746733573087118
6.01625e-06	-0.0018690428138532303
6.01650e-06	-0.0018626774019153062
6.01675e-06	-0.0018554332256839816
6.01700e-06	-0.001848189049452657
6.01725e-06	-0.0018409448732213077
6.01750e-06	-0.001833700696989983
6.01775e-06	-0.0018264565207586584
6.01800e-06	-0.0018198356652652055
6.01825e-06	-0.0018139601839726
6.01850e-06	-0.0018068462965098032
6.01875e-06	-0.0017982515085197205
6.01900e-06	-0.0017896567205296671
6.01925e-06	-0.0017781155310566447
6.01950e-06	-0.0017630510003611155
6.01975e-06	-0.0017479864696656373
6.02000e-06	-0.001730416250043146
6.02025e-06	-0.0017098496984074135
6.02050e-06	-0.0016892831467717508
6.02075e-06	-0.0016652295617453458
6.02100e-06	-0.001637006141562482
6.02125e-06	-0.0016087827213796182
6.02150e-06	-0.0015772338635879775
6.02175e-06	-0.0015417084087588412
6.02200e-06	-0.0015061829539297045
6.02225e-06	-0.0014679969828935847
6.02250e-06	-0.0014266295355794215
6.02275e-06	-0.0013852620882652586
6.02300e-06	-0.0013411612794013903
6.02325e-06	-0.0012937918849500105
6.02350e-06	-0.0012464224904986307
6.02375e-06	-0.0011975117066217007
6.02400e-06	-0.0011467577113111855
6.02425e-06	-0.001095298934659366
6.02450e-06	-0.001042997372267967
6.02475e-06	-0.0009901004688546743
6.02500e-06	-0.0009364916497106462
6.02525e-06	-0.0008827005581591235
6.02550e-06	-0.0008286915031388358
6.02575e-06	-0.0007750923622219312
6.02600e-06	-0.0007219834013661789
6.02625e-06	-0.0006698142991803221
6.02650e-06	-0.000618769090942084
6.02675e-06	-0.0005689874896163558
6.02700e-06	-0.0005207169241587137
6.02725e-06	-0.00047370137686106025
6.02750e-06	-0.0004292317188029845
6.02775e-06	-0.00038721366094888836
6.02800e-06	-0.0003479911918521567
6.02825e-06	-0.0003118169973033195
6.02850e-06	-0.00027854185470869476
6.02875e-06	-0.0002475315705565393
6.02900e-06	-0.00021824141589711467
6.02925e-06	-0.0001906158974237593
6.02950e-06	-0.00016483221596618632
6.02975e-06	-0.0001410747177817485
6.03000e-06	-0.00011952768760660327
6.03025e-06	-0.00010031825202363049
6.03050e-06	-8.332175464348648e-05
6.03075e-06	-6.810976900456139e-05
6.03100e-06	-5.43099634084632e-05
6.03125e-06	-4.185647673492418e-05
6.03150e-06	-3.0829202507886686e-05
6.03175e-06	-2.1312502107704036e-05
6.03200e-06	-1.3390692106062234e-05
6.03225e-06	-7.112277545340969e-06
6.03250e-06	-2.3680415695574565e-06
6.03275e-06	1.141493918850431e-06
6.03300e-06	3.6806419810438552e-06
6.03325e-06	5.321728913801611e-06
6.03350e-06	6.0457807809206705e-06
6.03375e-06	5.831030257525489e-06
6.03400e-06	4.6557390190307595e-06
6.03425e-06	2.520604129308633e-06
6.03450e-06	-4.748834129104783e-07
6.03475e-06	-4.112066945874022e-06
6.03500e-06	-8.194334342452981e-06
6.03525e-06	-1.264534502180639e-05
6.03550e-06	-1.7445951379758404e-05
6.03575e-06	-2.257875517952938e-05
6.03600e-06	-2.8026339499093232e-05
6.03625e-06	-3.3777965520791674e-05
6.03650e-06	-3.9694355885102864e-05
6.03675e-06	-4.561074624939401e-05
6.03700e-06	-5.13781315381061e-05
6.03725e-06	-5.6967334821432175e-05
6.03750e-06	-6.230443321041728e-05
6.03775e-06	-6.734006162957097e-05
6.03800e-06	-7.205701155579418e-05
6.03825e-06	-7.639288202734433e-05
6.03850e-06	-8.05360291172783e-05
6.03875e-06	-8.444871534207232e-05
6.03900e-06	-8.835501467648956e-05
6.03925e-06	-9.225367649299545e-05
6.03950e-06	-9.615233830948813e-05
6.03975e-06	-9.994740327296606e-05
6.04000e-06	-0.00010361858591264254
6.04025e-06	-0.00010728976855230658
6.04050e-06	-0.00011096095119197062
6.04075e-06	-0.0001146321338316471
6.04100e-06	-0.00011830331647131113
6.04125e-06	-0.00012197449911097517
6.04150e-06	-0.00012564568175065164
6.04175e-06	-0.0001293982371843142
6.04200e-06	-0.0001332480991531016
6.04225e-06	-0.00013709796112187594
6.04250e-06	-0.0001409478230906503
6.04275e-06	-0.00014479768505943767
6.04300e-06	-0.00014864754702821202
6.04325e-06	-0.00015249740899698637
6.04350e-06	-0.00015634727096577376
6.04375e-06	-0.00016022239718652226
6.04400e-06	-0.00016412773469412595
6.04425e-06	-0.0001680330722017429
6.04450e-06	-0.0001719384097093466
6.04475e-06	-0.00017584374721695028
6.04500e-06	-0.0001797490847245672
6.04525e-06	-0.00018365442223217089
6.04550e-06	-0.00018755975973977458
6.04575e-06	-0.00019122052822097974
6.04600e-06	-0.00019458883821101697
6.04625e-06	-0.0001979571482010656
6.04650e-06	-0.00020132545819110284
6.04675e-06	-0.00020469376818114008
6.04700e-06	-0.00020806207817118872
6.04725e-06	-0.00021143038816122595
6.04750e-06	-0.00021479869815126319
6.04775e-06	-0.00021783596674927416
6.04800e-06	-0.0002204773721938664
6.04825e-06	-0.00022320182212439275
6.04850e-06	-0.00022602557761872122
6.04875e-06	-0.0002297066708399897
6.04900e-06	-0.0002352550804733462
6.04925e-06	-0.00024260318221638478
6.04950e-06	-0.0002516367723333534
6.04975e-06	-0.0002622348742646407
6.05000e-06	-0.0002742765641900784
6.05025e-06	-0.00028769279022230625
6.05050e-06	-0.00030263414718726604
6.05075e-06	-0.00031948991245704623
6.05100e-06	-0.00033854157087869944
6.05125e-06	-0.0003597537492723695
6.05150e-06	-0.00038333616788792813
6.05175e-06	-0.00040840774994637275
6.05200e-06	-0.0004348798155285873
6.05225e-06	-0.0004630265956245818
6.05250e-06	-0.0004925693395459602
6.05275e-06	-0.0005237813932734246
6.05300e-06	-0.0005567361507695406
6.05325e-06	-0.000591774853735565
6.05350e-06	-0.0006268135567017082
6.05375e-06	-0.0006634804396716149
6.05400e-06	-0.0007020943192591162
6.05425e-06	-0.0007407081988467484
6.05450e-06	-0.0007793220784342496
6.05475e-06	-0.0008179359580218818
6.05500e-06	-0.0008571529641764602
6.05525e-06	-0.0008970911961065968
6.05550e-06	-0.0009370294280368688
6.05575e-06	-0.0009769676599670056
6.05600e-06	-0.001016905891897142
6.05625e-06	-0.0010557802778598132
6.05650e-06	-0.0010933825044201278
6.05675e-06	-0.0011309847309804422
6.05700e-06	-0.0011668801992905033
6.05725e-06	-0.0012007347062003505
6.05750e-06	-0.0012345892131101978
6.05775e-06	-0.0012662810775186295
6.05800e-06	-0.0012953868288281733
6.05825e-06	-0.001322000569592826
6.05850e-06	-0.0013456343351152967
6.05875e-06	-0.0013655240939005804
6.05900e-06	-0.001380936725810927
6.05925e-06	-0.0013922508793964897
6.05950e-06	-0.0013986640248529528
6.05975e-06	-0.0014010606297409777
6.06000e-06	-0.001398654208623493
6.06025e-06	-0.0013921828954436971
6.06050e-06	-0.0013808507369787203
6.06075e-06	-0.0013650491668263428
6.06100e-06	-0.001343903022108411
6.06125e-06	-0.0013184451117193487
6.06150e-06	-0.001287831141707876
6.06175e-06	-0.0012533365666873538
6.06200e-06	-0.0012142015189869652
6.06225e-06	-0.0011715352747428004
6.06250e-06	-0.0011246463845322613
6.06275e-06	-0.0010743525577366312
6.06300e-06	-0.00101998706810474
6.06325e-06	-0.0009626951334665431
6.06350e-06	-0.0009019037217966183
6.06375e-06	-0.0008393234241423498
6.06400e-06	-0.0007736281781067162
6.06425e-06	-0.0007059376687936538
6.06450e-06	-0.0006365323962865008
6.06475e-06	-0.0005656366045025438
6.06500e-06	-0.0004935276457954095
6.06525e-06	-0.00042059052914257506
6.06550e-06	-0.00034725595081944356
6.06575e-06	-0.00027395580504336784
6.06600e-06	-0.00020112196485191504
6.06625e-06	-0.00012917669467165115
6.06650e-06	-5.850385185009325e-05
6.06675e-06	1.0547985264158846e-05
6.06700e-06	7.759700637907692e-05
6.06725e-06	0.00014219396700142613
6.06750e-06	0.0002038610798607503
6.06775e-06	0.0002621197947042184
6.06800e-06	0.000316491634039208
6.06825e-06	0.00036661790549350376
6.06850e-06	0.0004126692258570165
6.06875e-06	0.0004554587087320792
6.06900e-06	0.0004956903014345137
6.06925e-06	0.0005334310662408366
6.06950e-06	0.0005684438740651603
6.06975e-06	0.000600482284330191
6.07000e-06	0.0006292999570240539
6.07025e-06	0.0006540453470800155
6.07050e-06	0.0006761058177356508
6.07075e-06	0.0006959794436339685
6.07100e-06	0.0007132380150948116
6.07125e-06	0.0007285550381517477
6.07150e-06	0.0007415503350081361
6.07175e-06	0.0007524223677312064
6.07200e-06	0.0007607553764675784
6.07225e-06	0.000766950819737838
6.07250e-06	0.0007705901373211431
6.07275e-06	0.0007727040103376602
6.07300e-06	0.000772993738969857
6.07325e-06	0.0007716864324279507
6.07350e-06	0.000768469372619478
6.07375e-06	0.0007652523128110051
6.07400e-06	0.0007601547669154407
6.07425e-06	0.0007528085138494275
6.07450e-06	0.0007454622607834142
6.07475e-06	0.0007366894948600351
6.07500e-06	0.0007262108882431231
6.07525e-06	0.000715732281626211
6.07550e-06	0.0007052536750092634
6.07575e-06	0.0006947750683923514
6.07600e-06	0.0006842964617754038
6.07625e-06	0.0006727653767428163
6.07650e-06	0.000661185174268307
6.07675e-06	0.0006496049717937586
6.07700e-06	0.0006380247693192492
6.07725e-06	0.00062644456684474
6.07750e-06	0.0006169357500703497
6.07775e-06	0.0006099039204475741
6.07800e-06	0.0006028720908247985
6.07825e-06	0.0005958402612019991
6.07850e-06	0.0005888084315792235
6.07875e-06	0.000581776601956448
6.07900e-06	0.0005747447723336485
6.07925e-06	0.000567712942710873
6.07950e-06	0.0005606811130880974
6.07975e-06	0.000553649283465298
6.08000e-06	0.0005466174538425225
6.08025e-06	0.000539585624219723
6.08050e-06	0.0005386150447537328
6.08075e-06	0.0005379273338938795
6.08100e-06	0.0005372396230340237
6.08125e-06	0.0005365519121741703
6.08150e-06	0.0005358642013143169
6.08175e-06	0.0005351764904544613
6.08200e-06	0.0005344887795946079
6.08225e-06	0.0005338010687347544
6.08250e-06	0.0005331133578748988
6.08275e-06	0.0005324256470150454
6.08300e-06	0.000531737936155192
6.08325e-06	0.0005326080138989585
6.08350e-06	0.0005353409134027342
6.08375e-06	0.00053807381290651
6.08400e-06	0.0005408067124102949
6.08425e-06	0.0005435396119140706
6.08450e-06	0.0005462725114178556
6.08475e-06	0.0005490054109216313
6.08500e-06	0.0005523724396168171
6.08525e-06	0.0005559420328851222
6.08550e-06	0.0005595116261534151
6.08575e-06	0.000563081219421708
6.08600e-06	0.000566650812690013
6.08625e-06	0.0005702204059583059
6.08650e-06	0.0005735728806145348
6.08675e-06	0.0005771206705054235
6.08700e-06	0.0005811841491065421
6.08725e-06	-0.05725785867378092
6.08750e-06	-0.02819685019490641
6.08775e-06	-0.010469150446738837
6.08800e-06	0.010762995863436285
6.08825e-06	0.026303555657389555
6.08850e-06	0.022574260848160978
6.08875e-06	0.009461774628340521
6.08900e-06	-0.007974309231292009
6.08925e-06	-0.021592257262256026
6.08950e-06	-0.017302215947956175
6.08975e-06	-0.005078296804923223
6.09000e-06	0.008037205436844039
6.09025e-06	0.017588202166713217
6.09050e-06	0.015150706428200593
6.09075e-06	0.006875064036415877
6.09100e-06	-0.004089361849140877
6.09125e-06	-0.012652115731503702
6.09150e-06	-0.00999242215675696
6.09175e-06	-0.0023608917138603857
6.09200e-06	0.005829950433101238
6.09225e-06	0.011788423373435919
6.09250e-06	0.010237970690305596
6.09275e-06	0.005031558369331144
6.09300e-06	-0.0018578682738062268
6.09325e-06	-0.007241679722155606
6.09350e-06	-0.005594963584037661
6.09375e-06	-0.0008335699496878558
6.09400e-06	0.004278332530136174
6.09425e-06	0.007992078995062725
6.09450e-06	0.007002713686317525
6.09475e-06	0.003724044342779529
6.09500e-06	-0.0006079318101174618
6.09525e-06	-0.003995860008031191
6.09550e-06	-0.0029791906086712792
6.09575e-06	-1.1099341537343637e-05
6.09600e-06	0.0031768409369660666
6.09625e-06	0.005489297162039593
6.09650e-06	0.004856223659481256
6.09675e-06	0.00278982534465591
6.09700e-06	6.442588217157549e-05
6.09725e-06	-0.002068830933993611
6.09750e-06	-0.0014424129223236425
6.09775e-06	0.00040683304716862176
6.09800e-06	0.002394192191956927
6.09825e-06	0.0038334946606526483
6.09850e-06	0.003427724461081364
6.09875e-06	0.002123361059935765
6.09900e-06	0.00040480178775340823
6.09925e-06	-0.0009443723539562973
6.09950e-06	-0.0005664183607034363
6.09975e-06	0.0005759713873316761
6.10000e-06	0.001803394598800513
6.10025e-06	0.002686147974570569
6.10050e-06	0.002411952189042353
6.10075e-06	0.0015738605160882523
6.10100e-06	0.00047543842892756237
6.10125e-06	-0.0003923767562305253
6.10150e-06	-0.0001790542916485188
6.10175e-06	0.0005124078471366284
6.10200e-06	0.0012565115140983432
6.10225e-06	0.0017842016006239972
6.10250e-06	0.0015868136576160834
6.10275e-06	0.001035988389643097
6.10300e-06	0.0003220061399714786
6.10325e-06	-0.00024750595273184163
6.10350e-06	-0.0001397098814350287
6.10375e-06	0.00026773693843524745
6.10400e-06	0.0007083923224333845
6.10425e-06	0.0010138298989679992
6.10450e-06	0.0008655548695883073
6.10475e-06	0.0004964983486988138
6.10500e-06	2.597152906705228e-05
6.10525e-06	-0.000353222380420628
6.10550e-06	-0.00030723241939745974
6.10575e-06	-7.254500080235604e-05
6.10600e-06	0.00018403709973765955
6.10625e-06	0.00035712066236383636
6.10650e-06	0.0002473237938781616
6.10675e-06	6.79749479173735e-07
6.10700e-06	-0.0003079596375111936
6.10725e-06	-0.0005577159875452182
6.10750e-06	-0.00053937386577702
6.10775e-06	-0.00040097894287720656
6.10800e-06	-0.00024691564501804755
6.10825e-06	-0.00014321337483607182
6.10850e-06	-0.00021537044293515518
6.10875e-06	-0.0003732459794583552
6.10900e-06	-0.000571063067331503
6.10925e-06	-0.0007333829313502408
6.10950e-06	-0.0007290821622521616
6.10975e-06	-0.0006508270257530823
6.11000e-06	-0.0005639271003663906
6.11025e-06	-0.0005096614672439613
6.11050e-06	-0.0005665549236457504
6.11075e-06	-0.000678055113194846
6.11100e-06	-0.0008154029159574973
6.11125e-06	-0.000931262565362698
6.11150e-06	-0.0009434233377253132
6.11175e-06	-0.0009098572023089593
6.11200e-06	-0.0008713952416273506
6.11225e-06	-0.000853812793579901
6.11250e-06	-0.0009062123415556823
6.11275e-06	-0.0009930836226467905
6.11300e-06	-0.0010963283534910929
6.11325e-06	-0.0011862140690108327
6.11350e-06	-0.0012111662851427103
6.11375e-06	-0.0012074213672870298
6.11400e-06	-0.0012004759466919513
6.11425e-06	-0.0012063935787147565
6.11450e-06	-0.0012558480009618185
6.11475e-06	-0.0013265109758148143
6.11500e-06	-0.001406962870089173
6.11525e-06	-0.001478497463410039
6.11550e-06	-0.0015087290874633218
6.11575e-06	-0.0015202772887704537
6.11600e-06	-0.001529032103674227
6.11625e-06	-0.0015449740089853792
6.11650e-06	-0.0015872333681519022
6.11675e-06	-0.0016417402249814521
6.11700e-06	-0.001701258568371893
6.11725e-06	-0.0017539889789324266
6.11750e-06	-0.0017795647403214237
6.11775e-06	-0.0017920744139467602
6.11800e-06	-0.0018013904471948468
6.11825e-06	-0.0018136018884594232
6.11850e-06	-0.0018401366541429235
6.11875e-06	-0.0018712085517755457
6.11900e-06	-0.001901593097678656
6.11925e-06	-0.0019238556240091795
6.11950e-06	-0.0019254572122876974
6.11975e-06	-0.001915441693714891
6.12000e-06	-0.0019002112400388195
6.12025e-06	-0.001883797725974921
6.12050e-06	-0.0018735768202710202
6.12075e-06	-0.0018636354465398598
6.12100e-06	-0.0018509183692802414
6.12125e-06	-0.0018309864976007787
6.12150e-06	-0.0017962035762195704
6.12175e-06	-0.0017524533045243258
6.12200e-06	-0.0017039637979941933
6.12225e-06	-0.0016534783272677835
6.12250e-06	-0.0016058341008838492
6.12275e-06	-0.001557544661555129
6.12300e-06	-0.0015069135192807232
6.12325e-06	-0.0014513776162225493
6.12350e-06	-0.0013863717738611437
6.12375e-06	-0.001315799253018132
6.12400e-06	-0.0012425265268059427
6.12425e-06	-0.0011684893804440562
6.12450e-06	-0.0010969349565818193
6.12475e-06	-0.00102589653293852
6.12500e-06	-0.0009545288455121642
6.12525e-06	-0.0008814437458727856
6.12550e-06	-0.0008039991907381806
6.12575e-06	-0.0007248578852505906
6.12600e-06	-0.000646032618515723
6.12625e-06	-0.0005689532117719484
6.12650e-06	-0.0004958708553624958
6.12675e-06	-0.00042577053009743563
6.12700e-06	-0.0003583398472337213
6.12725e-06	-0.00029292643682655886
6.12750e-06	-0.0002280924934381628
6.12775e-06	-0.00016572317442792702
6.12800e-06	-0.00010729634431172348
6.12825e-06	-5.377383418222332e-05
6.12850e-06	-5.866159269632884e-06
6.12875e-06	3.871752815232966e-05
6.12900e-06	8.160197527309132e-05
6.12925e-06	0.00012361611318943664
6.12950e-06	0.0001656383032053474
6.12975e-06	0.00020646547975862025
6.13000e-06	0.0002451497882694877
6.13025e-06	0.00028106667816366754
6.13050e-06	0.0003137490958800083
6.13075e-06	0.00034460997629855454
6.13100e-06	0.0003746449165784521
6.13125e-06	0.0004043014442671768
6.13150e-06	0.00043410594944215636
6.13175e-06	0.0004634071636342958
6.13200e-06	0.0004911829426516371
6.13225e-06	0.0005180955281572636
6.13250e-06	0.0005423918423800017
6.13275e-06	0.0005663706002198754
6.13300e-06	0.0005893868697714655
6.13325e-06	0.0006124005400711375
6.13350e-06	0.0006354063322438411
6.13375e-06	0.0006579303362264416
6.13400e-06	0.0006789940782990734
6.13425e-06	0.0007000578203717767
6.13450e-06	0.0007204981463121295
6.13475e-06	0.0007390489472478051
6.13500e-06	0.0007575997481835437
6.13525e-06	0.0007759552971658691
6.13550e-06	0.0007937190529158404
6.13575e-06	0.0008114828086657514
6.13600e-06	0.0008286568615434314
6.13625e-06	0.0008440435716421177
6.13650e-06	0.0008594302817407518
6.13675e-06	0.0008743399906049506
6.13700e-06	0.0008878039464432295
6.13725e-06	0.0009012679022814627
6.13750e-06	0.0009142907265617264
6.13775e-06	0.0009259765159693073
6.13800e-06	0.0009376623053768487
6.13825e-06	0.0009485724009970902
6.13850e-06	0.0009571314300808182
6.13875e-06	0.0009656904591645172
6.13900e-06	0.0009734966534374989
6.13925e-06	0.0009790210649246003
6.13950e-06	0.000984545476411683
6.13975e-06	0.0009892728417382857
6.14000e-06	0.0009915844231735886
6.14025e-06	0.0009938960046088916
6.14050e-06	0.0009953477150021375
6.14075e-06	0.0009941932242555798
6.14100e-06	0.000993038733509022
6.14125e-06	0.0009911585027462379
6.14150e-06	0.0009870786113774911
6.14175e-06	0.0009829987200087444
6.14200e-06	0.0009782115625660906
6.14225e-06	0.0009712807375760168
6.14250e-06	0.0009643499125859429
6.14275e-06	0.000956817211560382
6.14300e-06	0.0009474602718608811
6.14325e-06	0.0009381033321613804
6.14350e-06	0.0009283038457555574
6.14375e-06	0.0009171630352745951
6.14400e-06	0.0009060222247935952
6.14425e-06	0.000894536695747067
