Time(s)	Current(A)
3.75000e-06	-0.0017618959058460105
3.75025e-06	-0.0017854952404862245
3.75050e-06	-0.0018092182850262197
3.75075e-06	-0.0018328858695850418
3.75100e-06	-0.0018563173556695493
3.75125e-06	-0.0018793514081642724
3.75150e-06	-0.001901781367614538
3.75175e-06	-0.001923399814611659
3.75200e-06	-0.0019440394792463644
3.75225e-06	-0.0019635139955688457
3.75250e-06	-0.0019816312684780577
3.75275e-06	-0.0019981878038760436
3.75300e-06	-0.0020129793309592173
3.75325e-06	-0.002025728478035371
3.75350e-06	-0.002035919170323183
3.75375e-06	-0.0020430321914051614
3.75400e-06	-0.002046878827845143
3.75425e-06	-0.0020474654982355
3.75450e-06	-0.0020433916721949155
3.75475e-06	-0.0020387753390231863
3.75500e-06	-0.002028465290614797
3.75525e-06	-0.0020174361030249038
3.75550e-06	-0.0019987596871828208
3.75575e-06	-0.0019791173955922494
3.75600e-06	-0.0019594751040017113
3.75625e-06	-0.0019322427941829826
3.75650e-06	-0.0019040518344723549
3.75675e-06	-0.0018704311421834095
3.75700e-06	-0.0018361246527865691
3.75725e-06	-0.0017968494702190732
3.75750e-06	-0.0017569467216790968
3.75775e-06	-0.0017122937323365702
3.75800e-06	-0.0016670407684360041
3.75825e-06	-0.00161773700408089
3.75850e-06	-0.001567921607302689
3.75875e-06	-0.0015156182204822705
3.75900e-06	-0.0014616335448233407
3.75925e-06	-0.0014063096794434233
3.75950e-06	-0.0013498160352462285
3.75975e-06	-0.0012923217169819574
3.76000e-06	-0.0012340765886692069
3.76025e-06	-0.001175378642377256
3.76050e-06	-0.0011165304676370236
3.76075e-06	-0.0010578333875443126
3.76100e-06	-0.0009995881550948801
3.76125e-06	-0.000942084514854243
3.76150e-06	-0.0008855751682100979
3.76175e-06	-0.0008303126537687073
3.76200e-06	-0.0007766001365906452
3.76225e-06	-0.0007247707763583193
3.76250e-06	-0.0006763115637046565
3.76275e-06	-0.0006282508077608584
3.76300e-06	-0.0005839396856815924
3.76325e-06	-0.0005427088570214144
3.76350e-06	-0.000503627494700547
3.76375e-06	-0.0004658260996503238
3.76400e-06	-0.0004281573320323084
3.76425e-06	-0.0003919148485566118
3.76450e-06	-0.0003558525105164626
3.76475e-06	-0.00032204293991279726
3.76500e-06	-0.00028851790291563545
3.76525e-06	-0.000257018976749049
3.76550e-06	-0.00022666352588222445
3.76575e-06	-0.00019668629306782354
3.76600e-06	-0.00016685189776739106
3.76625e-06	-0.00013728710243470724
3.76650e-06	-0.00010816158516925594
3.76675e-06	-7.964518347727118e-05
3.76700e-06	-5.190766567965223e-05
3.76725e-06	-2.500510314763419e-05
3.76750e-06	1.3323940257628065e-06
3.76775e-06	2.7507821796645958e-05
3.76800e-06	5.3644979806348906e-05
3.76825e-06	7.964083021456432e-05
3.76850e-06	0.00010518086876526827
3.76875e-06	0.00013066553967923617
3.76900e-06	0.00015521673951527748
3.76925e-06	0.00017965003819201786
3.76950e-06	0.00020328253649969067
3.76975e-06	0.00022681389049334245
3.77000e-06	0.00025034524448699425
3.77025e-06	0.0002731381438593069
3.77050e-06	0.0002958377734368046
3.77075e-06	0.0003185374030143022
3.77100e-06	0.0003398011143917084
3.77125e-06	0.00036088346351324324
3.77150e-06	0.00038196581263481383
3.77175e-06	0.0004017534425812618
3.77200e-06	0.0004213775442777645
3.77225e-06	0.0004410016459743004
3.77250e-06	0.00045965483103006273
3.77275e-06	0.00047756770319041814
3.77300e-06	0.0004947055999016419
3.77325e-06	0.0005107799774524003
3.77350e-06	0.0005249699874737319
3.77375e-06	0.0005363199519139498
3.77400e-06	0.0005444548215773026
3.77425e-06	0.0005494320011148977
3.77450e-06	0.0005513594336975054
3.77475e-06	0.000550345993221585
3.77500e-06	0.0005465004311799831
3.77525e-06	0.0005398067750677835
3.77550e-06	0.0005299156749639449
3.77575e-06	0.000516393373444891
3.77600e-06	0.0004991697743901634
3.77625e-06	0.00047844571234755484
3.77650e-06	0.000454453761773757
3.77675e-06	0.0004274268504150786
3.77700e-06	0.00039759802542726114
3.77725e-06	0.0003651221064035628
3.77750e-06	0.0003299451131815503
3.77775e-06	0.00029196011174165913
3.77800e-06	0.0002512881546757529
3.77825e-06	0.0002082198330916534
3.77850e-06	0.00016306564190744576
3.77875e-06	0.00011613634536479696
3.77900e-06	6.774266166900046e-05
3.77925e-06	1.814636212822637e-05
3.77950e-06	-3.2521622613754636e-05
3.77975e-06	-8.416350373215104e-05
3.78000e-06	-0.0001365387460070888
3.78025e-06	-0.00018930056040048407
3.78050e-06	-0.00024208976428723053
3.78075e-06	-0.00029454701267285846
3.78100e-06	-0.00034631302516292714
3.78125e-06	-0.00039705921466397486
3.78150e-06	-0.0004465389585798909
3.78175e-06	-0.0004945263759402842
3.78200e-06	-0.0005407062351382335
3.78225e-06	-0.0005846967803826626
3.78250e-06	-0.0006261084223500894
3.78275e-06	-0.0006645516674715743
3.78300e-06	-0.0006996369449274095
3.78325e-06	-0.0007312103327307993
3.78350e-06	-0.0007598016356789684
3.78375e-06	-0.0007862519416277634
3.78400e-06	-0.0008108642900607768
3.78425e-06	-0.0008334857170239013
3.78450e-06	-0.0008539089194082976
3.78475e-06	-0.0008707547629892365
3.78500e-06	-0.0008871802373032556
3.78525e-06	-0.0009000555634734398
3.78550e-06	-0.000910475903004488
3.78575e-06	-0.0009191519307852547
3.78600e-06	-0.0009263091994243196
3.78625e-06	-0.0009318878656711488
3.78650e-06	-0.0009357938833136766
3.78675e-06	-0.0009371016531952196
3.78700e-06	-0.0009381050950617077
3.78725e-06	-0.0009366237510609805
3.78750e-06	-0.0009334401273031279
3.78775e-06	-0.0009285969330452263
3.78800e-06	-0.0009235662777431147
3.78825e-06	-0.0009166951341072129
3.78850e-06	-0.0009095915293769942
3.78875e-06	-0.0009005656264954231
3.78900e-06	-0.0008912969296098829
3.78925e-06	-0.0008802192176557761
3.78950e-06	-0.0008689130198076051
3.78975e-06	-0.0008565518215706387
3.79000e-06	-0.0008440573725326014
3.79025e-06	-0.0008308465837086574
3.79050e-06	-0.0008175453182826773
3.79075e-06	-0.0008036035796609574
3.79100e-06	-0.0007895809466932767
3.79125e-06	-0.0007751158533636563
3.79150e-06	-0.0007605948755070895
3.79175e-06	-0.0007462306696539954
3.79200e-06	-0.0007318862647367851
3.79225e-06	-0.0007182092756463418
3.79250e-06	-0.0007046165838647447
3.79275e-06	-0.0006910238920831244
3.79300e-06	-0.0006784081463034069
3.79325e-06	-0.0006659157927411624
3.79350e-06	-0.0006534234391788968
3.79375e-06	-0.0006410342393726817
3.79400e-06	-0.0006286580683015993
3.79425e-06	-0.000616281897230538
3.79450e-06	-0.0006038071202643934
3.79475e-06	-0.0005913198889762882
3.79500e-06	-0.0005788326576882041
3.79525e-06	-0.000566337622684085
3.79550e-06	-0.0005538416020391819
3.79575e-06	-0.0005413455813942998
3.79600e-06	-0.0005283045474141847
3.79625e-06	-0.0005151946760532457
3.79650e-06	-0.0005020848046923067
3.79675e-06	-0.0004889749333313899
3.79700e-06	-0.00047551142055841234
3.79725e-06	-0.0004620032414498001
3.79750e-06	-0.00044849506234121073
3.79775e-06	-0.0004349868832325985
3.79800e-06	-0.00042105755755374874
3.79825e-06	-0.00040707503936571426
3.79850e-06	-0.0003930925211777034
3.79875e-06	-0.00037897280056982006
3.79900e-06	-0.00036483575074333717
3.79925e-06	-0.0003506987009168782
3.79950e-06	-0.0003365432184719963
3.79975e-06	-0.00032238540791312094
3.80000e-06	-0.0003082275973542695
3.80025e-06	-0.0002941330003404545
3.80050e-06	-0.0002800463874521531
3.80075e-06	-0.00026595977456385166
3.80100e-06	-0.00025224008275556085
3.80125e-06	-0.00023856673455846826
3.80150e-06	-0.00022489338636137566
3.80175e-06	-0.0002117207421550259
3.80200e-06	-0.00019861133888069343
3.80225e-06	-0.00018550193560636094
3.80250e-06	-0.00017298273142242948
3.80275e-06	-0.0001605380717623459
3.80300e-06	-0.00014870288361491554
3.80325e-06	-0.00013694467417592102
3.80350e-06	-0.0001253269477752669
3.80375e-06	-0.00011372696494852922
3.80400e-06	-0.00010160176554794969
3.80425e-06	-8.941022917730551e-05
3.80450e-06	-7.721869280664066e-05
3.80475e-06	-6.472912296057045e-05
3.80500e-06	-5.212414444649089e-05
3.80525e-06	-3.9432227187669486e-05
3.80550e-06	-2.6542009595502586e-05
3.80575e-06	-1.3299909936713891e-05
3.80600e-06	3.3828870377256096e-07
3.80625e-06	1.433044992160671e-05
3.80650e-06	2.862422755173602e-05
3.80675e-06	4.316713845337028e-05
3.80700e-06	5.798129189014026e-05
3.80725e-06	7.282625904434417e-05
3.80750e-06	8.807832597228513e-05
3.80775e-06	0.00010338181124238313
3.80800e-06	0.00011928112444221024
3.80825e-06	0.00013525569311096313
3.80850e-06	0.000151230261779689
3.80875e-06	0.00016763930386441608
3.80900e-06	0.00018410322169266826
3.80925e-06	0.00020056713952092047
3.80950e-06	0.00021703105734914476
3.80975e-06	0.00023349497517739695
3.81000e-06	0.0002499307935872357
3.81025e-06	0.00026632226404403993
3.81050e-06	0.000282713734500872
3.81075e-06	0.000299105204957704
3.81100e-06	0.000315496675414536
3.81125e-06	0.00033188814587134025
3.81150e-06	0.00034754375942195025
3.81175e-06	0.00036310643127952585
3.81200e-06	0.00037866910313707504
3.81225e-06	0.0003933357171794166
3.81250e-06	0.000407889155508244
3.81275e-06	0.0004224425938370468
3.81300e-06	0.0004355951445542277
3.81325e-06	0.00044857075751995054
3.81350e-06	0.00046154637048567346
3.81375e-06	0.000472321809271091
3.81400e-06	0.00048281935719002165
3.81425e-06	0.0004933169051089522
3.81450e-06	0.0005013901933334586
3.81475e-06	0.000509157287787885
3.81500e-06	0.0005169243822422982
3.81525e-06	0.0005222150630282943
3.81550e-06	0.0005271929627870605
3.81575e-06	0.0005321708625458265
3.81600e-06	0.0005345573601054895
3.81625e-06	0.0005366165531230716
3.81650e-06	0.0005386757461406607
3.81675e-06	0.0005384385105337276
3.81700e-06	0.0005379112267360661
3.81725e-06	0.0005373839429384029
3.81750e-06	0.0005351293074624677
3.81775e-06	0.0005326565005077113
3.81800e-06	0.0005289313521734739
3.81825e-06	0.000525048028075632
3.81850e-06	0.0005201477919248082
3.81875e-06	0.0005151191156831549
3.81900e-06	0.0005094807159876829
3.81925e-06	0.0005034347589571367
3.81950e-06	0.0004970589352031755
3.81975e-06	0.0004904024285818915
3.82000e-06	0.0004835344444013031
3.82025e-06	0.000476537728230552
3.82050e-06	0.00046949657428425147
3.82075e-06	0.00046249529635918757
3.82100e-06	0.00045561820825224143
3.82125e-06	0.0004489460578237656
3.82150e-06	0.00044255097706428554
3.82175e-06	0.00043650489351546723
3.82200e-06	0.0004308922682550284
3.82225e-06	0.00042580605735774126
3.82250e-06	0.00042134016909339237
3.82275e-06	0.0004175885215228467
3.82300e-06	0.0004146450068668593
3.82325e-06	0.00041307261560739086
3.82350e-06	0.0004116618074260007
3.82375e-06	0.00041222921541400284
3.82400e-06	0.0004130464800770584
3.82425e-06	0.00041594661339247846
3.82450e-06	0.0004191098214133402
3.82475e-06	0.00042439140241041503
3.82500e-06	0.0004299405424521279
3.82525e-06	0.00043765725505710856
3.82550e-06	0.00044564774081283525
3.82575e-06	0.00045584223370002854
3.82600e-06	0.0004663151015707319
3.82625e-06	0.0004793763483467412
3.82650e-06	0.0004927645178105104
3.82675e-06	0.0005061526872742343
3.82700e-06	0.0005223497293808482
3.82725e-06	0.000538901543422936
3.82750e-06	0.0005554533574649678
3.82775e-06	0.0005744643928829321
3.82800e-06	0.0005937860378721503
3.82825e-06	0.0006131076828613031
3.82850e-06	0.0006343422546519219
3.82875e-06	0.0006558184368073058
3.82900e-06	0.0006772946189626169
3.82925e-06	0.0007000882337579456
3.82950e-06	0.0007230482456052628
3.82975e-06	0.00074600825745258
3.83000e-06	0.0007695983030875801
3.83025e-06	0.0007932679245290934
3.83050e-06	0.0008170096054498278
3.83075e-06	0.0008407603877732886
3.83100e-06	0.0008645111700966689
3.83125e-06	0.0008876706099043354
3.83150e-06	0.0009107553607690683
3.83175e-06	0.0009338401116337231
3.83200e-06	0.000955850146098555
3.83225e-06	0.000977724439550758
3.83250e-06	0.0009982927475357505
3.83275e-06	0.0010186961042927655
3.83300e-06	0.0010373881733122328
3.83325e-06	0.0010558640997934202
3.83350e-06	0.0010719559651921858
3.83375e-06	0.001087746714067774
3.83400e-06	0.0010999105954853045
3.83425e-06	0.001111616388925686
3.83450e-06	0.001123322182366028
3.83475e-06	0.00113065727467549
3.83500e-06	0.0011374403298170812
3.83525e-06	0.0011442233849586494
3.83550e-06	0.0011464135139437467
3.83575e-06	0.0011480235378446186
3.83600e-06	0.0011496335617454851
3.83625e-06	0.0011474261731488815
3.83650e-06	0.0011447366299687047
3.83675e-06	0.0011392969745766784
3.83700e-06	0.0011335099689286615
3.83725e-06	0.001125815962479746
3.83750e-06	0.001116648520455649
3.83775e-06	0.0011066752132936242
3.83800e-06	0.0011037656484983885
3.83825e-06	0.0010911196619404096
3.83850e-06	-0.031378081696879834
3.83875e-06	-0.04212416501905426
3.83900e-06	-0.02047460693196021
3.83925e-06	0.00506910677801211
3.83950e-06	0.032065390221137635
3.83975e-06	0.03324531003761072
3.84000e-06	0.018533368657374344
3.84025e-06	-0.002988000606181533
3.84050e-06	-0.0270309138051602
3.84075e-06	-0.027211873233084397
3.84100e-06	-0.0124219718791876
3.84125e-06	0.0045459271451287996
3.84150e-06	0.021263415231275937
3.84175e-06	0.021867260200124035
3.84200e-06	0.012573438785799345
3.84225e-06	-0.0009578321665952797
3.84250e-06	-0.01605385677662046
3.84275e-06	-0.01619478988395424
3.84300e-06	-0.0069538877782728045
3.84325e-06	0.003653640240777965
3.84350e-06	0.014105866219636602
3.84375e-06	0.014466069110036534
3.84400e-06	0.008628394555296695
3.84425e-06	0.00013865665475476692
3.84450e-06	-0.009328906401825016
3.84475e-06	-0.009426755889148639
3.84500e-06	-0.003646747490894584
3.84525e-06	0.002990020102671592
3.84550e-06	0.009530106242904839
3.84575e-06	0.009749383022544703
3.84600e-06	0.006087534400114418
3.84625e-06	0.0007658369173662678
3.84650e-06	-0.005166933923867877
3.84675e-06	-0.0052294011739133645
3.84700e-06	-0.0016093626398079423
3.84725e-06	0.0025477132979030578
3.84750e-06	0.006644504374639686
3.84775e-06	0.006782343307113024
3.84800e-06	0.004489672526106592
3.84825e-06	0.001157991263069878
3.84850e-06	-0.002555747638964352
3.84875e-06	-0.002591832164210943
3.84900e-06	-0.00032103136884148627
3.84925e-06	0.0022861540025402353
3.84950e-06	0.004855487122436159
3.84975e-06	0.004944902434139783
3.85000e-06	0.003511935683553808
3.85025e-06	0.0014282595661329982
3.85050e-06	-0.0008946307017057044
3.85075e-06	-0.0009138909005475704
3.85100e-06	0.0005116006490313275
3.85125e-06	0.002147390810919707
3.85150e-06	0.003758991372792451
3.85175e-06	0.003816709230943028
3.85200e-06	0.0029204010554402375
3.85225e-06	0.0016160859711984476
3.85250e-06	0.00016149239885597045
3.85275e-06	0.00014933881963378147
3.85300e-06	0.0010414614629943673
3.85325e-06	0.0020647552631543374
3.85350e-06	0.003073173232549816
3.85375e-06	0.003109593248562408
3.85400e-06	0.0025502842332664087
3.85425e-06	0.001737288615032106
3.85450e-06	0.0008319608727943548
3.85475e-06	0.0008318386112924367
3.85500e-06	0.0013996474558316992
3.85525e-06	0.0020509842457875453
3.85550e-06	0.0026942601155139517
3.85575e-06	0.0027298619659421497
3.85600e-06	0.002393428209604658
3.85625e-06	0.0018991367492003904
3.85650e-06	0.0013479688942951817
3.85675e-06	0.0013646568310479391
3.85700e-06	0.00173778977696661
3.85725e-06	0.002163819152772659
3.85750e-06	0.002585271443707784
3.85775e-06	0.0026264675633790873
3.85800e-06	0.0024349387486911414
3.85825e-06	0.0021447612948226795
3.85850e-06	0.001819096507569807
3.85875e-06	0.0018491614825729586
3.85900e-06	0.0021024026779052083
3.85925e-06	0.002388566849376331
3.85950e-06	0.002671551928147709
3.85975e-06	0.0027159450711686595
3.86000e-06	0.002614078157807427
3.86025e-06	0.0024498471129036845
3.86050e-06	0.002262720967694895
3.86075e-06	0.002297649760489142
3.86100e-06	0.002471486894310379
3.86125e-06	0.002664952227747369
3.86150e-06	0.002855332232506747
3.86175e-06	0.0028950730779706527
3.86200e-06	0.0028419239189557723
3.86225e-06	0.002748345082891746
3.86250e-06	0.0026389641793847355
3.86275e-06	0.0026671137235579085
3.86300e-06	0.002780602538894099
3.86325e-06	0.0029046410894684287
3.86350e-06	0.0030250309937680945
3.86375e-06	0.0030494660528053662
3.86400e-06	0.0030142433184504065
3.86425e-06	0.0029523142136203104
3.86450e-06	0.0028791884061361607
3.86475e-06	0.0028909911752902895
3.86500e-06	0.0029551046111379368
3.86525e-06	0.003024759181056868
3.86550e-06	0.003091142009694266
3.86575e-06	0.0030965172276752233
3.86600e-06	0.003063706763179643
3.86625e-06	0.0030134354089061404
3.86650e-06	0.002955500796179339
3.86675e-06	0.0029501953172229216
3.86700e-06	0.002977164572141461
3.86725e-06	0.0030071920434400256
3.86750e-06	0.003034839028766854
3.86775e-06	0.003024023196009385
3.86800e-06	0.0029891246578008274
3.86825e-06	0.0029432087473491918
3.86850e-06	0.0028924949820726873
3.86875e-06	0.0028748310237569673
3.86900e-06	0.002877546024778462
3.86925e-06	0.0028824196884320924
3.86950e-06	0.0028861269456999057
3.86975e-06	0.00286614873396196
3.87000e-06	0.002831576508048328
3.87025e-06	0.002790676944945603
3.87050e-06	0.0027474286353396265
3.87075e-06	0.002725619816793769
3.87100e-06	0.0027173944882566193
3.87125e-06	0.002711420205407795
3.87150e-06	0.002705696360425255
3.87175e-06	0.0026861994554703765
3.87200e-06	0.002658707531762778
3.87225e-06	0.0026284815295561097
3.87250e-06	0.002598095593834419
3.87275e-06	0.002582532202381456
3.87300e-06	0.002576950996036163
3.87325e-06	0.0025740922403389467
3.87350e-06	0.0025719318817410243
3.87375e-06	0.002560711655440456
3.87400e-06	0.0025435977274255303
3.87425e-06	0.00252386507462345
3.87450e-06	0.0025031786368890597
3.87475e-06	0.0024909761758743795
3.87500e-06	0.002484277591817507
3.87525e-06	0.0024785880463577183
3.87550e-06	0.0024726922828393486
3.87575e-06	0.0024605308103011598
3.87600e-06	0.002444140692127854
3.87625e-06	0.002425626060760005
3.87650e-06	0.0024060832487386875
3.87675e-06	0.002391476371945775
3.87700e-06	0.0023799915045138948
3.87725e-06	0.0023688655822921433
3.87750e-06	0.0023573903141109243
3.87775e-06	0.00234182338790383
3.87800e-06	0.0023234939425734813
3.87825e-06	0.0023037731158896935
3.87850e-06	0.0022834006914909735
3.87875e-06	0.0022661653451840464
3.87900e-06	0.002250983730918589
3.87925e-06	0.002236177933077593
3.87950e-06	0.002221357051358587
3.87975e-06	0.0022042302530348077
3.88000e-06	0.0021856831037447475
3.88025e-06	0.002166627528784892
3.88050e-06	0.002147580105128065
3.88075e-06	0.0021309668288307403
3.88100e-06	0.002116162054998354
3.88125e-06	0.002102167458982662
3.88150e-06	0.002088791439369679
3.88175e-06	0.002074651844437998
3.88200e-06	0.002060356554444023
3.88225e-06	0.002046529995575386
3.88250e-06	0.002033548393175825
3.88275e-06	0.0020229845450952695
3.88300e-06	0.002014499509398874
3.88325e-06	0.0020075357699450695
3.88350e-06	0.002002262357670524
3.88375e-06	0.001997329258408108
3.88400e-06	0.0019935549630267645
3.88425e-06	0.001991218231817292
3.88450e-06	0.0019915316550993076
3.88475e-06	0.00199241606229923
3.88500e-06	0.001996072085194349
3.88525e-06	0.002001785218905065
3.88550e-06	0.0020096189095267737
3.88575e-06	0.0020178826511466586
3.88600e-06	0.002027670354505765
3.88625e-06	0.002039623141798875
3.88650e-06	0.002052008917134008
3.88675e-06	0.0020667266551009514
3.88700e-06	0.002083370865562123
3.88725e-06	0.0021024092913270952
3.88750e-06	0.0021219451017033685
3.88775e-06	0.002141480912079576
3.88800e-06	0.0021626226539402833
3.88825e-06	0.0021853325217213947
3.88850e-06	0.002208326876088651
3.88875e-06	0.002233112399178637
3.88900e-06	0.0022583292384549766
3.88925e-06	0.0022848470542419282
3.88950e-06	0.0023116781471758325
3.88975e-06	0.0023385092401096465
3.89000e-06	0.002365925849095129
3.89025e-06	0.002393483451247451
3.89050e-06	0.0024210410533996793
3.89075e-06	0.0024488644551952767
3.89100e-06	0.0024767518619543353
3.89125e-06	0.0025042501860726156
3.89150e-06	0.0025316548184919634
3.89175e-06	0.0025580458845339458
3.89200e-06	0.002584192882231597
3.89225e-06	0.0026086072565568033
3.89250e-06	0.002632604412506358
3.89275e-06	0.002656601568455831
3.89300e-06	0.0026778604157602403
3.89325e-06	0.0026984598741269425
3.89350e-06	0.002719059332493575
3.89375e-06	0.0027366831733913375
3.89400e-06	0.002753590481021121
3.89425e-06	0.0027704977886509052
3.89450e-06	0.002784486147708581
3.89475e-06	0.0027977716194559
3.89500e-06	0.002811057091203219
3.89525e-06	0.002821262802310369
3.89550e-06	0.0028307269023136114
3.89575e-06	0.002840191002316854
