Time(s)	Current(A)
4.05000e-06	0.0022312114103058937
4.05025e-06	0.002225036720469771
4.05050e-06	0.0022188620306336274
4.05075e-06	0.0022126873407975044
4.05100e-06	0.002206512650961382
4.05125e-06	0.002200337961125238
4.05150e-06	0.0021939149525417824
4.05175e-06	0.0021861967437031633
4.05200e-06	0.0021784785348645704
4.05225e-06	0.0021707603260259774
4.05250e-06	0.0021630421171873583
4.05275e-06	0.002155323908348766
4.05300e-06	0.002147605699510173
4.05325e-06	0.0021398874906715538
4.05350e-06	0.0021321692818329608
4.05375e-06	0.002124451072994368
4.05400e-06	0.0021167328641557488
4.05425e-06	0.002107684949509037
4.05450e-06	0.0020917014517851
4.05475e-06	0.0020757179540611087
4.05500e-06	0.0020597344563371713
4.05525e-06	0.0020437509586132344
4.05550e-06	0.002027767460889243
4.05575e-06	0.0020117839631653063
4.05600e-06	0.001995800465441315
4.05625e-06	0.001979816967717378
4.05650e-06	0.001963833469993441
4.05675e-06	0.0019464436640283312
4.05700e-06	0.0019217187260529246
4.05725e-06	0.001896993788077518
4.05750e-06	0.0018722688501020275
4.05775e-06	0.0018475439121266209
4.05800e-06	0.0018228189741512143
4.05825e-06	0.0017980940361757237
4.05850e-06	0.0017733690982003171
4.05875e-06	0.0017486441602249105
4.05900e-06	0.00172391922224942
4.05925e-06	0.0016989354611086475
4.05950e-06	0.0016726017099517154
4.05975e-06	0.0016462679587946941
4.06000e-06	0.001619934207637762
4.06025e-06	0.0015936004564807405
4.06050e-06	0.0015672667053238086
4.06075e-06	0.0015409329541668764
4.06100e-06	0.0015145992030098552
4.06125e-06	0.001492271056375485
4.06150e-06	0.001471998337012118
4.06175e-06	0.0014517256176486825
4.06200e-06	0.0014314528982853156
4.06225e-06	0.0014111801789219486
4.06250e-06	0.001390907459558513
4.06275e-06	0.001370634740195146
4.06300e-06	0.0013515811650984778
4.06325e-06	0.0013388864975816506
4.06350e-06	0.0013261918300648665
4.06375e-06	0.001313497162548082
4.06400e-06	0.001300802495031255
4.06425e-06	0.0012881078275144707
4.06450e-06	0.0012754131599976434
4.06475e-06	0.0012627184924808592
4.06500e-06	0.001250023824964075
4.06525e-06	0.0012373291574472476
4.06550e-06	0.0012246344899304634
4.06575e-06	0.0012126678070470726
4.06600e-06	0.0012044982030896736
4.06625e-06	0.0011963285991323023
4.06650e-06	0.001188158995174931
4.06675e-06	0.001179989391217532
4.06700e-06	0.0011718197872601609
4.06725e-06	0.0011636501833027896
4.06750e-06	0.0011554805793453906
4.06775e-06	0.0011473109753880194
4.06800e-06	0.0011391413714306482
4.06825e-06	0.0011309717674732492
4.06850e-06	0.0011231909746053674
4.06875e-06	0.0011174381728876002
4.06900e-06	0.0011116853711698523
4.06925e-06	0.0011059325694521046
4.06950e-06	0.0011001797677343374
4.06975e-06	0.0010944269660165895
4.07000e-06	0.0010886741642988419
4.07025e-06	0.0010829213625810747
4.07050e-06	0.0010771685608633268
4.07075e-06	0.0010714157591455791
4.07100e-06	0.001065662957427812
4.07125e-06	0.0010617155150851232
4.07150e-06	0.0010586944709606737
4.07175e-06	0.001055673426836214
4.07200e-06	0.0010526523827117645
4.07225e-06	0.001049631338587315
4.07250e-06	0.0010466102944628553
4.07275e-06	0.0010435892503384058
4.07300e-06	0.001040568206213946
4.07325e-06	0.0010375471620894963
4.07350e-06	0.0010345261179650468
4.07375e-06	0.0010326009971959459
4.07400e-06	0.0010363920787819997
4.07425e-06	0.0010401831603680536
4.07450e-06	0.0010439742419541202
4.07475e-06	0.001047765323540174
4.07500e-06	0.0010515564051262276
4.07525e-06	0.0010553474867122943
4.07550e-06	0.001059138568298348
4.07575e-06	0.001062929649884402
4.07600e-06	0.0010667207314704686
4.07625e-06	0.0010705118130565224
4.07650e-06	0.0010787896327989113
4.07675e-06	0.0010893697676874388
4.07700e-06	0.0010999499025759307
4.07725e-06	0.0011105300374644582
4.07750e-06	0.0011211101723529499
4.07775e-06	0.0011316903072414418
4.07800e-06	0.0011422704421299693
4.07825e-06	0.001152850577018461
4.07850e-06	0.0011634307119069527
4.07875e-06	0.0011740108467954804
4.07900e-06	0.001184894717196086
4.07925e-06	0.0011973628349264817
4.07950e-06	0.0012098309526569198
4.07975e-06	0.0012222990703873154
4.08000e-06	0.0012347671881177112
4.08025e-06	0.001247235305848149
4.08050e-06	0.0012597034235785447
4.08075e-06	0.0012721715413089405
4.08100e-06	0.0012846396590393784
4.08125e-06	0.0012971077767697742
4.08150e-06	0.0013078476122483696
4.08175e-06	0.0013177006006977379
4.08200e-06	0.001327553589147106
4.08225e-06	0.0013374065775965077
4.08250e-06	0.001347259566045876
4.08275e-06	0.0013571125544952442
4.08300e-06	0.0013669655429446458
4.08325e-06	0.001376818531394014
4.08350e-06	0.0013866715198433822
4.08375e-06	0.0013972158300144812
4.08400e-06	0.0014113659898401037
4.08425e-06	0.0014255161496657261
4.08450e-06	0.0014396663094913965
4.08475e-06	0.0014538164693170188
4.08500e-06	0.0014679666291426412
4.08525e-06	0.0014821167889683116
4.08550e-06	0.001496266948793934
4.08575e-06	0.0015104171086196044
4.08600e-06	0.0015245672684452269
4.08625e-06	0.0015435619976427143
4.08650e-06	0.0015650426587244235
4.08675e-06	0.0015865233198060602
4.08700e-06	0.0016080039808876966
4.08725e-06	0.0016294846419694059
4.08750e-06	0.0016509653030510425
4.08775e-06	0.001672445964132679
4.08800e-06	0.0016939266252143882
4.08825e-06	0.0017154072862960248
4.08850e-06	0.0017373078734549997
4.08875e-06	0.0017614192098027962
4.08900e-06	0.0017856372946412518
4.08925e-06	0.0018098553794797076
4.08950e-06	0.0018340734643182452
4.08975e-06	0.0018582915491567008
4.09000e-06	0.0018825096339952386
4.09025e-06	0.0019067277188336942
4.09050e-06	0.0019309458036721498
4.09075e-06	0.0019551638885106875
4.09100e-06	0.0019756751431944997
4.09125e-06	0.0019942842830436612
4.09150e-06	0.002012893422892886
4.09175e-06	0.0020315025627420475
4.09200e-06	0.002050111702591209
4.09225e-06	0.002068720842440434
4.09250e-06	0.0020873299822895953
4.09275e-06	0.002105939122138757
4.09300e-06	0.0021224623910311223
4.09325e-06	0.0021281060118077556
4.09350e-06	0.0021337496325843893
4.09375e-06	0.0021393932533610416
4.09400e-06	0.002145036874137675
4.09425e-06	0.0021506804949143277
4.09450e-06	0.002156324115690961
4.09475e-06	0.0021619677364675943
4.09500e-06	0.002167611357244247
4.09525e-06	0.0021732549780208803
4.09550e-06	0.002178898598797514
4.09575e-06	0.0021845422195741664
4.09600e-06	0.002188157259757726
4.09625e-06	0.002181191471365997
4.09650e-06	0.002174225682974244
4.09675e-06	0.0021672598945825148
4.09700e-06	0.0021602941061907854
4.09725e-06	0.0021533283177990327
4.09750e-06	0.0021463625294073038
4.09775e-06	0.0021393967410155744
4.09800e-06	0.0021324309526238217
4.09825e-06	0.0021254651642320923
4.09850e-06	0.0021184993758403396
4.09875e-06	0.0021115335874486102
4.09900e-06	0.002104077124114423
4.09925e-06	0.002094061360218248
4.09950e-06	0.0020840455963221072
4.09975e-06	0.0020740298324259665
4.10000e-06	0.0020640140685297915
4.10025e-06	0.002053998304633651
4.10050e-06	0.00204398254073751
4.10075e-06	0.0020339667768413355
4.10100e-06	0.0020239510129451944
4.10125e-06	0.0020139352490490536
4.10150e-06	0.002003919485152879
4.10175e-06	0.0019939037212567384
4.10200e-06	0.001983887957360597
4.10225e-06	0.0019738721934644226
4.10250e-06	0.001963856429568282
4.10275e-06	0.001953840665672107
4.10300e-06	0.0019438249017759662
4.10325e-06	0.0019338091378798255
4.10350e-06	0.0019237933739836507
4.10375e-06	0.0019170150839079208
4.10400e-06	0.0019118980641688185
4.10425e-06	0.001906781044429699
4.10450e-06	0.0019016640246905967
4.10475e-06	0.0018965470049514945
4.10500e-06	0.001891429985212375
4.10525e-06	0.0018863129654732727
4.10550e-06	0.0018811959457341707
4.10575e-06	0.001876078925995051
4.10600e-06	0.0018709619062559487
4.10625e-06	0.0018658448865168467
4.10650e-06	0.001860727866777727
4.10675e-06	0.001855610847038625
4.10700e-06	0.0018504938272995053
4.10725e-06	0.0018453768075604032
4.10750e-06	0.001840259787821301
4.10775e-06	0.0018351427680821813
4.10800e-06	0.0018300257483430792
4.10825e-06	0.0018252352609868672
4.10850e-06	0.0018221479266520065
4.10875e-06	0.0018190605923171562
4.10900e-06	0.001815973257982306
4.10925e-06	0.0018128859236474452
4.10950e-06	0.0018097985893125949
4.10975e-06	0.0018067112549777446
4.11000e-06	0.0018036239206428838
4.11025e-06	0.0018005365863080335
4.11050e-06	0.0017974492519731832
4.11075e-06	0.0017943619176383223
4.11100e-06	0.001791274583303472
4.11125e-06	0.0017881872489686112
4.11150e-06	0.001785099914633761
4.11175e-06	0.0017820125802989106
4.11200e-06	0.00177892524596405
4.11225e-06	0.0017758379116291996
4.11250e-06	0.001772567535449904
4.11275e-06	0.0017683424353697175
4.11300e-06	0.0017641173352895452
4.11325e-06	0.0017585676914831424
4.11350e-06	0.0017461093894024688
4.11375e-06	0.0017336510873218376
4.11400e-06	0.0017199491807207232
4.11425e-06	0.0016997607848553934
4.11450e-06	0.0016795723889901318
4.11475e-06	0.0016579315261231826
4.11500e-06	0.0016287147728041777
4.11525e-06	0.0015994980194852719
4.11550e-06	0.0015686508327982102
4.11575e-06	0.0015292995048325534
4.11600e-06	0.0014899481768668964
4.11625e-06	0.0014493197512190049
4.11650e-06	0.001402030140068184
4.11675e-06	0.0013547405289173627
4.11700e-06	0.0013061787582185976
4.11725e-06	0.0012509815587224676
4.11750e-06	0.0011957843592263373
4.11775e-06	0.0011396333069531612
4.11800e-06	0.0010785070751163854
4.11825e-06	0.0010173808432796094
4.11850e-06	0.0009556866805090127
4.11875e-06	0.0008910302593660146
4.11900e-06	0.0008263738382230164
4.11925e-06	0.0007617174170797992
4.11950e-06	0.0006961859437303662
4.11975e-06	0.0006302054479781422
4.12000e-06	0.0005642249522261418
4.12025e-06	0.0004985634112804928
4.12050e-06	0.00043456549964169573
4.12075e-06	0.00037091055969385367
4.12100e-06	0.0003093150121444401
4.12125e-06	0.00024945478873805764
4.12150e-06	0.00019167937972795545
4.12175e-06	0.00013641163480031026
4.12200e-06	8.40750821802284e-05
4.12225e-06	3.509321208407602e-05
4.12250e-06	-1.015583399444933e-05
4.12275e-06	-5.1650724477830695e-05
4.12300e-06	-9.003802082292846e-05
4.12325e-06	-0.0001260654437141026
4.12350e-06	-0.0001598759298632519
4.12375e-06	-0.00019125874557287878
4.12400e-06	-0.0002199991383604236
4.12425e-06	-0.0002458823895289384
4.12450e-06	-0.00026872220789030815
4.12475e-06	-0.0002885558360327534
4.12500e-06	-0.00030583888145633767
4.12525e-06	-0.00032109019969018486
4.12550e-06	-0.00033444983517388893
4.12575e-06	-0.00034583630500095854
4.12600e-06	-0.0003551656004594377
4.12625e-06	-0.00036235377673795644
4.12650e-06	-0.00036733462776620325
4.12675e-06	-0.0003700655040599625
4.12700e-06	-0.0003706241229817509
4.12725e-06	-0.00037075639705606926
4.12750e-06	-0.000368664908487957
4.12775e-06	-0.0003661595671163886
4.12800e-06	-0.0003614956200780361
4.12825e-06	-0.00035642201546538896
4.12850e-06	-0.00034921168698888547
4.12875e-06	-0.0003416933767184999
4.12900e-06	-0.0003325686710340977
4.12925e-06	-0.00032323818764169694
4.12950e-06	-0.00031283439286194426
4.12975e-06	-0.0003024305980821563
4.13000e-06	-0.0002918498168484494
4.13025e-06	-0.00028034589589154106
4.13050e-06	-0.0002688419749345937
4.13075e-06	-0.00025733805397768535
4.13100e-06	-0.0002460528576042047
4.13125e-06	-0.00023487989709182136
4.13150e-06	-0.0002237069365794759
4.13175e-06	-0.00021275693423752708
4.13200e-06	-0.00020296985447575784
4.13225e-06	-0.00019340371954899017
4.13250e-06	-0.00018499000589073313
4.13275e-06	-0.00017673208225537162
4.13300e-06	-0.00016928674034792998
4.13325e-06	-0.00016190372053643932
4.13350e-06	-0.00015484576516429206
4.13375e-06	-0.00014787517684446193
4.13400e-06	-0.0001413602843967
4.13425e-06	-0.00013496416001075834
4.13450e-06	-0.000129187515326384
4.13475e-06	-0.00012349735783551252
4.13500e-06	-0.00011825830698073894
4.13525e-06	-0.00011301925612596538
4.13550e-06	-0.00010783100843524873
4.13575e-06	-0.00010290774384220755
4.13600e-06	-9.798447924916636e-05
4.13625e-06	-9.315274572311007e-05
4.13650e-06	-8.879842706102916e-05
4.13675e-06	-8.444410839893349e-05
4.13700e-06	-8.013083524734554e-05
4.13725e-06	-7.603165046432516e-05
4.13750e-06	-7.193246568129091e-05
4.13775e-06	-6.787406557257511e-05
4.13800e-06	-6.402839334272692e-05
4.13825e-06	-6.0182721112865724e-05
4.13850e-06	-5.639693975941381e-05
4.13875e-06	-5.2923541900895326e-05
4.13900e-06	-4.945014404236507e-05
4.13925e-06	-4.6000278992620334e-05
4.13950e-06	-4.267315819863699e-05
4.13975e-06	-3.9374199226641e-05
4.14000e-06	-3.62221288779079e-05
4.14025e-06	-3.3111589278872235e-05
4.14050e-06	-3.021766899678585e-05
4.14075e-06	-2.7361581131094077e-05
4.14100e-06	-2.4702822527583003e-05
4.14125e-06	-2.206532831640822e-05
4.14150e-06	-1.9555788818552864e-05
4.14175e-06	-1.7155132162373528e-05
4.14200e-06	-1.4881697252734813e-05
4.14225e-06	-1.2753821499710462e-05
4.14250e-06	-1.0807260286976817e-05
4.14275e-06	-9.21140050046164e-06
4.14300e-06	-8.364008352985146e-06
4.14325e-06	-8.64247365329317e-06
4.14350e-06	-1.0144073787633123e-05
4.14375e-06	-1.2816853628478429e-05
4.14400e-06	-1.660720060638764e-05
4.14425e-06	-2.146149939180418e-05
4.14450e-06	-2.733704930825553e-05
4.14475e-06	-3.427485355099313e-05
4.14500e-06	-4.245895324476005e-05
4.14525e-06	-5.206061778876115e-05
4.14550e-06	-6.30756296181064e-05
4.14575e-06	-7.540630457809415e-05
4.14600e-06	-8.895392624019031e-05
4.14625e-06	-0.00010361976571219497
4.14650e-06	-0.00011931195943469422
4.14675e-06	-0.00013599107193485723
4.14700e-06	-0.00015370726864963539
4.14725e-06	-0.00017257551596621152
4.14750e-06	-0.00019268945695727528
4.14775e-06	-0.00021305391540332977
4.14800e-06	-0.0002347250422909977
4.14825e-06	-0.0002565994009539978
4.14850e-06	-0.00027953379172923626
4.14875e-06	-0.0003024681825044747
4.14900e-06	-0.0003255643440014787
4.14925e-06	-0.00034950428182028314
4.14950e-06	-0.00037344421963916873
4.14975e-06	-0.0003973841574579732
4.15000e-06	-0.0004213240952767776
4.15025e-06	-0.0004445972170923598
4.15050e-06	-0.0004675281703818368
4.15075e-06	-0.0004904591236713138
4.15100e-06	-0.0005133900769608685
4.15125e-06	-0.0005358960094177356
4.15150e-06	-0.0005561850851338238
4.15175e-06	-0.0005764741608499807
4.15200e-06	-0.0005962986601952065
4.15225e-06	-0.0006136999859444399
4.15250e-06	-0.000630552612237701
4.15275e-06	-0.0006445432891995402
4.15300e-06	-0.000657686707789291
4.15325e-06	-0.0006664109302146919
4.15350e-06	-0.0006742144730750959
4.15375e-06	-0.0006772158637986177
4.15400e-06	-0.0006793202620826251
4.15425e-06	-0.0006767460573825575
4.15450e-06	-0.0006732609729106427
4.15475e-06	-0.0006650248508258612
4.15500e-06	-0.0006557774256706919
4.15525e-06	-0.0006412551672455112
4.15550e-06	-0.0006257622236217973
4.15575e-06	-0.0006052063045855281
4.15600e-06	-0.0005839857507473578
4.15625e-06	-0.0005586936246413169
4.15650e-06	-0.0005302463183920262
4.15675e-06	-0.0005012125509417209
4.15700e-06	-0.0004687302228733775
4.15725e-06	-0.000433850258804048
4.15750e-06	-0.00039659209580989444
4.15775e-06	-0.0003568667351164844
4.15800e-06	-0.000316743441015568
4.15825e-06	-0.00027432933995326337
4.15850e-06	-0.0002306102150514895
4.15875e-06	-0.00018577939379649757
4.15900e-06	-0.00013997388906983622
4.15925e-06	-9.334713721667619e-05
4.15950e-06	-4.613670870907997e-05
4.15975e-06	1.3772223029520633e-06
4.16000e-06	4.8914053579318783e-05
4.16025e-06	9.619320211400875e-05
4.16050e-06	0.00014293706603608599
4.16075e-06	0.00018889019957685034
4.16100e-06	0.00023383239760737235
4.16125e-06	0.0002775332139833441
4.16150e-06	0.0003197095604024841
4.16175e-06	0.00036005160887178737
4.16200e-06	0.000398249296545649
4.16225e-06	0.0004339926187866459
4.16250e-06	0.00046698416803032315
4.16275e-06	0.0004970292287714147
4.16300e-06	0.0005241484800529486
4.16325e-06	0.0005484535610916373
4.16350e-06	0.0005699392011933837
4.16375e-06	0.0005885159900913953
4.16400e-06	0.0006040935894958154
4.16425e-06	0.0006165816611169708
4.16450e-06	0.000625648135312151
4.16475e-06	0.0006307218642833343
4.16500e-06	0.0006348509128579963
4.16525e-06	0.0006340526238923958
4.16550e-06	0.000632366688109146
4.16575e-06	0.0006260508949655607
4.16600e-06	0.0006188779406484959
4.16625e-06	0.0006072341383670268
4.16650e-06	0.0005947807692252706
4.16675e-06	0.0005781047982425104
4.16700e-06	0.0005607333462859873
4.16725e-06	0.0005397343505347737
4.16750e-06	0.0005181424157928225
4.16775e-06	0.0004934577837122153
4.16800e-06	0.0004682661141722016
4.16825e-06	0.0004404297991876043
4.16850e-06	0.0004121830564103871
4.16875e-06	0.00038179557240742575
4.16900e-06	0.00035109558128776385
4.16925e-06	0.0003187655912249012
4.16950e-06	0.000286435601161929
4.16975e-06	0.0002539842397476048
4.17000e-06	0.00022089982019164273
4.17025e-06	0.00018781540063556853
4.17050e-06	0.00015483744906668088
4.17075e-06	0.0001224148215113646
4.17100e-06	9.016772520135424e-05
4.17125e-06	5.900493631526423e-05
4.17150e-06	2.892670163047189e-05
4.17175e-06	1.5412200424523438e-07
4.17200e-06	-2.709187136114607e-05
4.17225e-06	-5.2590370198653744e-05
4.17250e-06	-7.609090458137031e-05
4.17275e-06	-9.711986786280175e-05
4.17300e-06	-0.00011484577628875766
4.17325e-06	-0.00012853379121277784
4.17350e-06	-0.0001379744371810448
4.17375e-06	-0.00014322539842730124
4.17400e-06	-0.00014434729304279822
4.17425e-06	-0.00014140077859779203
4.17450e-06	-0.00013442794347426324
4.17475e-06	-0.00012333116272646936
4.17500e-06	-0.00010778863679432467
4.17525e-06	-8.753916645485657e-05
4.17550e-06	-6.265061915535798e-05
4.17575e-06	-3.335825177362112e-05
4.17600e-06	1.0087875513664195e-07
4.17625e-06	3.74897167297213e-05
4.17650e-06	7.858281746090905e-05
4.17675e-06	0.0001232422827634352
4.17700e-06	0.000171470615970379
4.17725e-06	0.00022323238160553493
4.17750e-06	0.00027828598236617725
4.17775e-06	0.00033628504241834626
4.17800e-06	0.00039703957490437857
4.17825e-06	0.0004605512633994334
4.17850e-06	0.0005247111725504218
4.17875e-06	0.0005922521214507344
4.17900e-06	0.000659793070350818
4.17925e-06	0.0007277497925272672
4.17950e-06	0.0007978751373189544
4.17975e-06	0.000868000482110404
4.18000e-06	0.0009381258269020912
4.18025e-06	0.0010077986651901834
4.18050e-06	0.0010751112848390572
4.18075e-06	0.001142423904488159
4.18100e-06	0.0012097365241370327
4.18125e-06	0.001275869048290471
4.18150e-06	0.0013358463385112328
4.18175e-06	0.0013958236287317915
4.18200e-06	0.0014544289572721056
4.18225e-06	0.0015058783013000674
4.18250e-06	0.0015558803287162041
4.18275e-06	0.0015983333295038497
4.18300e-06	0.0016391006815861932
4.18325e-06	0.0016710758959557882
4.18350e-06	0.00170128675425095
4.18375e-06	0.001722294946812588
4.18400e-06	0.0017414974677836849
4.18425e-06	0.0017512818263373065
4.18450e-06	0.0017592162573782154
4.18475e-06	0.0017575016925183483
4.18500e-06	0.0017539319561092747
4.18525e-06	0.0017406858715458406
4.18550e-06	0.0017256792890204167
4.18575e-06	0.0017014901642051687
4.18600e-06	0.0016756586633497475
4.18625e-06	0.0016412607297176121
4.18650e-06	0.0016053367159184258
4.18675e-06	0.0015614528544102054
4.18700e-06	0.0015161835840137004
4.18725e-06	0.001463688190111459
4.18750e-06	0.0014097605562024198
4.18775e-06	0.0013483625333942852
4.18800e-06	0.0012869645105859427
4.18825e-06	0.001224282860018989
4.18850e-06	0.0011549059638832448
4.18875e-06	0.0010855290677477358
4.18900e-06	0.001015358534850038
4.18925e-06	0.000941048489559616
4.18950e-06	0.0008667384442694458
4.18975e-06	0.0007924283989792757
4.19000e-06	0.0007178733333556177
4.19025e-06	0.0006431925385268771
4.19050e-06	0.0005685117436981366
4.19075e-06	0.0004943628700845859
4.19100e-06	0.00042298843254567897
4.19125e-06	0.00035214393298647277
4.19150e-06	0.00028452266399109816
4.19175e-06	0.00021983516978221957
4.19200e-06	0.00015857760945499
4.19225e-06	0.00010124604467068567
4.19250e-06	4.8346108535342945e-05
4.19275e-06	4.474082925513822e-07
4.19300e-06	-4.183109818090279e-05
4.19325e-06	-7.804065735761756e-05
4.19350e-06	-0.00010801419657081762
4.19375e-06	-0.00013170225493235057
4.19400e-06	-0.00014905654400002935
4.19425e-06	-0.00016002883119815397
4.19450e-06	-0.0001645649110112612
4.19475e-06	-0.00016257053090672362
4.19500e-06	-0.00015392053033348523
4.19525e-06	-0.00013859639746996148
