Time(s)	Current(A)
7.50000e-06	-0.000910235383423206
7.50025e-06	-0.000899703177692804
7.50050e-06	-0.0008891709719624378
7.50075e-06	-0.0008786387662320716
7.50100e-06	-0.0008681065605016697
7.50125e-06	-0.0008575743547713035
7.50150e-06	-0.0008470421490409373
7.50175e-06	-0.0008365099433105354
7.50200e-06	-0.0008259777375801691
7.50225e-06	-0.0008154455318497673
7.50250e-06	-0.0008060770346274519
7.50275e-06	-0.000798574898673719
7.50300e-06	-0.0007910727627199607
7.50325e-06	-0.0007835706267662278
7.50350e-06	-0.0007760684908124949
7.50375e-06	-0.0007685663548587366
7.50400e-06	-0.0007610642189050037
7.50425e-06	-0.0007538140891563237
7.50450e-06	-0.0007469681281640451
7.50475e-06	-0.0007401221671717897
7.50500e-06	-0.0007332762061795343
7.50525e-06	-0.0007264302451872558
7.50550e-06	-0.0007195842841950004
7.50575e-06	-0.000712738323202745
7.50600e-06	-0.0007052432671541353
7.50625e-06	-0.0006967071893511346
7.50650e-06	-0.0006881711115481047
7.50675e-06	-0.000679635033745104
7.50700e-06	-0.0006710989559421032
7.50725e-06	-0.0006625628781390734
7.50750e-06	-0.0006540268003360726
7.50775e-06	-0.0006454907225330719
7.50800e-06	-0.000636954644730042
7.50825e-06	-0.0006284185669270413
7.50850e-06	-0.0006192977421792148
7.50875e-06	-0.0006092390974858359
7.50900e-06	-0.000599180452792491
7.50925e-06	-0.0005891218080991463
7.50950e-06	-0.0005790631634057673
7.50975e-06	-0.0005690045187124225
7.51000e-06	-0.0005589458740190776
7.51025e-06	-0.0005488872293256988
7.51050e-06	-0.0005388285846323539
7.51075e-06	-0.0005287699399390091
7.51100e-06	-0.000518858066747417
7.51125e-06	-0.0005091815863920585
7.51150e-06	-0.0004995051060366673
7.51175e-06	-0.0004898286256813089
7.51200e-06	-0.00048015214532595046
7.51225e-06	-0.0004716573391993912
7.51250e-06	-0.0004633175136991713
7.51275e-06	-0.0004549776881989514
7.51300e-06	-0.00044663786269870327
7.51325e-06	-0.0004388958753909082
7.51350e-06	-0.0004321127038340182
7.51375e-06	-0.00042628621918827994
7.51400e-06	-0.00042199407358401223
7.51425e-06	-0.0004190210875789646
7.51450e-06	-0.00041908957973342987
7.51475e-06	-0.0004215354646523682
7.51500e-06	-0.00042627227928393165
7.51525e-06	-0.000433213592000674
7.51550e-06	-0.0004422865941345815
7.51575e-06	-0.0004535372801762832
7.51600e-06	-0.00046724327866522723
7.51625e-06	-0.00048370525423766414
7.51650e-06	-0.000503441540967007
7.51675e-06	-0.0005256205515240177
7.51700e-06	-0.0005496000439194378
7.51725e-06	-0.0005764671576941712
7.51750e-06	-0.0006049058061281842
7.51775e-06	-0.0006358648893612128
7.51800e-06	-0.000668430235510594
7.51825e-06	-0.000703571713803238
7.51850e-06	-0.0007404385169342755
7.51875e-06	-0.0007800724042886942
7.51900e-06	-0.0008197062916429788
7.51925e-06	-0.0008610730557098806
7.51950e-06	-0.0009052190157321192
7.51975e-06	-0.0009493649757542084
7.52000e-06	-0.0009935109357764472
7.52025e-06	-0.0010376568957985361
7.52050e-06	-0.0010818028558206253
7.52075e-06	-0.0011267249437045608
7.52100e-06	-0.0011717488234182076
7.52125e-06	-0.0012167727031318543
7.52150e-06	-0.0012617965828456536
7.52175e-06	-0.0013068204625593003
7.52200e-06	-0.00135032424916786
7.52225e-06	-0.0013913901031884159
7.52250e-06	-0.0014324559572088326
7.52275e-06	-0.0014717971793910625
7.52300e-06	-0.001508372428787451
7.52325e-06	-0.0015430144756106866
7.52350e-06	-0.0015745560429064763
7.52375e-06	-0.0016028703301697595
7.52400e-06	-0.0016260086902901156
7.52425e-06	-0.0016442005037032726
7.52450e-06	-0.0016544590218626621
7.52475e-06	-0.0016597136978385284
7.52500e-06	-0.0016569431878020208
7.52525e-06	-0.0016493653123438462
7.52550e-06	-0.0016340773612432285
7.52575e-06	-0.00161366757906951
7.52600e-06	-0.0015850433797387033
7.52625e-06	-0.0015507166150851663
7.52650e-06	-0.0015072440489088132
7.52675e-06	-0.0014585293825755453
7.52700e-06	-0.001401407410953436
7.52725e-06	-0.0013396626578919186
7.52750e-06	-0.0012705038658618524
7.52775e-06	-0.0011970215567470494
7.52800e-06	-0.0011166051702654024
7.52825e-06	-0.0010329604977830692
7.52850e-06	-0.0009422127499210279
7.52875e-06	-0.0008466736041530656
7.52900e-06	-0.0007469218909569691
7.52925e-06	-0.0006435364361693888
7.52950e-06	-0.0005370858117142779
7.52975e-06	-0.00042805030209218224
7.53000e-06	-0.00031674251259925234
7.53025e-06	-0.00020347073124206186
7.53050e-06	-8.875544517880632e-05
7.53075e-06	2.673707111018559e-05
7.53100e-06	0.00014232149623039965
7.53125e-06	0.0002573125972602592
7.53150e-06	0.00037103162313024095
7.53175e-06	0.00048285513086928055
7.53200e-06	0.0005922647844471414
7.53225e-06	0.0006987449308123147
7.53250e-06	0.0008016470653315579
7.53275e-06	0.0009002314332591167
7.53300e-06	0.000993746385570984
7.53325e-06	0.001081440367304634
7.53350e-06	0.001162558215509996
7.53375e-06	0.0012363344075483798
7.53400e-06	0.0013020539881515455
7.53425e-06	0.0013592159254121115
7.53450e-06	0.0014075829708211996
7.53475e-06	0.0014470359588746881
7.53500e-06	0.0014774667127427559
7.53525e-06	0.0014987673331356378
7.53550e-06	0.0015108276321377466
7.53575e-06	0.0015135307684462575
7.53600e-06	0.0015067918849807434
7.53625e-06	0.0014906600338627197
7.53650e-06	0.0014653493824887177
7.53675e-06	0.0014311481599597314
7.53700e-06	0.0013883515685357483
7.53725e-06	0.0013372548644691481
7.53750e-06	0.0012781518193097285
7.53775e-06	0.0012113321756311644
7.53800e-06	0.0011371054663168664
7.53825e-06	0.0010558653205259463
7.53850e-06	0.0009681087292828534
7.53875e-06	0.0008743789362189269
7.53900e-06	0.0007752235590077517
7.53925e-06	0.0006711902376776876
7.53950e-06	0.0005628256868525024
7.53975e-06	0.000450674006451245
7.54000e-06	0.00033529174843174826
7.54025e-06	0.0002172879553280415
7.54050e-06	9.733644150723112e-05
7.54075e-06	-2.3880145831582855e-05
7.54100e-06	-0.00014562821344480826
7.54125e-06	-0.00026691541616798473
7.54150e-06	-0.00038746346736786045
7.54175e-06	-0.0005069905782334335
7.54200e-06	-0.0006238313659185785
7.54225e-06	-0.0007376438154488486
7.54250e-06	-0.0008476436926053362
7.54275e-06	-0.0009530287182580423
7.54300e-06	-0.0010529949952582623
7.54325e-06	-0.0011467386893071094
7.54350e-06	-0.0012334848439285676
7.54375e-06	-0.001312735186975816
7.54400e-06	-0.0013846154414143984
7.54425e-06	-0.0014495635324697968
7.54450e-06	-0.0015076834220181684
7.54475e-06	-0.001557328361996191
7.54500e-06	-0.0016002383511298137
7.54525e-06	-0.0016372241042631993
7.54550e-06	-0.0016647085393857526
7.54575e-06	-0.0016862995434890626
7.54600e-06	-0.0016984386347572444
7.54625e-06	-0.001705314232277262
7.54650e-06	-0.001703748213368046
7.54675e-06	-0.0016971333966739536
7.54700e-06	-0.001682421293962703
7.54725e-06	-0.0016627874807793196
7.54750e-06	-0.0016352602048184271
7.54775e-06	-0.0016032029871021467
7.54800e-06	-0.001563880627149071
7.54825e-06	-0.0015207954544158913
7.54850e-06	-0.0014716754645623725
7.54875e-06	-0.0014192994910501582
7.54900e-06	-0.0013617015553847593
7.54925e-06	-0.00130129958402891
7.54950e-06	-0.0012364004868321522
7.54975e-06	-0.0011693149960493388
7.55000e-06	-0.0010987229567846002
7.55025e-06	-0.0010270398667923833
7.55050e-06	-0.0009531216430265045
7.55075e-06	-0.0008781030466074421
7.55100e-06	-0.0008024091010180533
7.55125e-06	-0.0007264647221827495
7.55150e-06	-0.000650699274641532
7.55175e-06	-0.0005755847124327819
7.55200e-06	-0.0005016890066724976
7.55225e-06	-0.0004296280475271071
7.55250e-06	-0.00035996624570039924
7.55275e-06	-0.00029321911064749133
7.55300e-06	-0.0002298947214350823
7.55325e-06	-0.00017050110777841237
7.55350e-06	-0.00011552231496105941
7.55375e-06	-6.521676132540503e-05
7.55400e-06	-1.9347794019709567e-05
7.55425e-06	2.253314390532836e-05
7.55450e-06	6.0554829322681156e-05
7.55475e-06	9.45671937025552e-05
7.55500e-06	0.00012437951350782845
7.55525e-06	0.00014980111438666949
7.55550e-06	0.00017065639598368233
7.55575e-06	0.00018691107147489892
7.55600e-06	0.00019884098845479985
7.55625e-06	0.00020685470155798412
7.55650e-06	0.0002111604245699428
7.55675e-06	0.0002117916893005943
7.55700e-06	0.00020875658324029663
7.55725e-06	0.0002020632229832796
7.55750e-06	0.0001917291656187213
7.55775e-06	0.00017786050469559392
7.55800e-06	0.00016075757943951325
7.55825e-06	0.00014080382021516903
7.55850e-06	0.0001182571508674221
7.55875e-06	9.326606474170791e-05
7.55900e-06	6.596310487336334e-05
7.55925e-06	3.64808294034801e-05
7.55950e-06	4.9577060089249165e-06
7.55975e-06	-2.841235935011783e-05
7.56000e-06	-6.331379357017132e-05
7.56025e-06	-9.93790006608451e-05
7.56050e-06	-0.00013641981127049028
7.56075e-06	-0.00017407512564287706
7.56100e-06	-0.000211963808797151
7.56125e-06	-0.00025022676991917755
7.56150e-06	-0.0002884897310410744
7.56175e-06	-0.000326428012208719
7.56200e-06	-0.0003638455701142739
7.56225e-06	-0.0004004176788332483
7.56250e-06	-0.00043563385210687887
7.56275e-06	-0.00046958670260278625
7.56300e-06	-0.0005015134299908404
7.56325e-06	-0.0005318076163376346
7.56350e-06	-0.0005594835255606696
7.56375e-06	-0.0005863491050639645
7.56400e-06	-0.0006119150738904643
7.56425e-06	-0.0006387623108490018
7.56450e-06	-0.0006676644517606703
7.56475e-06	-0.0006965665926724368
7.56500e-06	-0.0007264266611899701
7.56525e-06	-0.0007578230585794417
7.56550e-06	-0.0007899619424499016
7.56575e-06	-0.0008232916296863994
7.56600e-06	-0.0008566213169228971
7.56625e-06	-0.0008923073243995762
7.56650e-06	-0.0009317724095372116
7.56675e-06	-0.0009712374946749808
7.56700e-06	-0.0010125235834029223
7.56725e-06	-0.001056730206390908
7.56750e-06	-0.0011009368293790434
7.56775e-06	-0.0011466726581220662
7.56800e-06	-0.0011948610343624985
7.56825e-06	-0.001243049410603094
7.56850e-06	-0.0012933561844328514
7.56875e-06	-0.0013470604544393193
7.56900e-06	-0.0014007647244459692
7.56925e-06	-0.001454468994452437
7.56950e-06	-0.001508173264458905
7.56975e-06	-0.0015618775344655549
7.57000e-06	-0.0016161717414679185
7.57025e-06	-0.0016714120922433392
7.57050e-06	-0.001726652443018947
7.57075e-06	-0.0017818927937943677
7.57100e-06	-0.0018371331445699755
7.57125e-06	-0.0018923734953453964
7.57150e-06	-0.0019457421243472823
7.57175e-06	-0.0019961088770249274
7.57200e-06	-0.0020464756297024025
7.57225e-06	-0.002096842382379877
7.57250e-06	-0.002147209135057522
7.57275e-06	-0.002189100666208743
7.57300e-06	-0.0022298806430038755
7.57325e-06	-0.002270660619799146
7.57350e-06	-0.0023114405965942784
7.57375e-06	-0.002347387753244208
7.57400e-06	-0.0023755840098520745
7.57425e-06	-0.002398902975069653
7.57450e-06	-0.0024143997170499674
7.57475e-06	-0.0024249399867672977
7.57500e-06	-0.0024275310425852
7.57525e-06	-0.002425287862450725
7.57550e-06	-0.0024152915115960897
7.57575e-06	-0.002400194589126009
7.57600e-06	-0.0023769173455266343
7.57625e-06	-0.0023481160847746876
7.57650e-06	-0.0023104553789177087
7.57675e-06	-0.0022676916871214466
7.57700e-06	-0.0022167438020924287
7.57725e-06	-0.0021612398648436218
7.57750e-06	-0.0020984289092742608
7.57775e-06	-0.0020313655250353744
7.57800e-06	-0.001957482075376623
7.57825e-06	-0.00187955148162011
7.57850e-06	-0.0017951300588219235
7.57875e-06	-0.0017081217106195022
7.57900e-06	-0.001615512134015461
7.57925e-06	-0.0015193252276975231
7.57950e-06	-0.00142008474682351
7.57975e-06	-0.0013182469852784954
7.58000e-06	-0.001214142394313558
7.58025e-06	-0.0011081066457494385
7.58050e-06	-0.0010006480190521431
7.58075e-06	-0.0008923907195681125
7.58100e-06	-0.0007839737779944164
7.58125e-06	-0.0006760361486825225
7.58150e-06	-0.0005692118413455083
7.58175e-06	-0.00046409238120408294
7.58200e-06	-0.0003611905116021609
7.58225e-06	-0.00026102237888172284
7.58250e-06	-0.0001642120134845241
7.58275e-06	-7.145602385381442e-05
7.58300e-06	1.653966466054848e-05
7.58325e-06	9.906922129609023e-05
7.58350e-06	0.00017551078384416338
7.58375e-06	0.00024600018889374826
7.58400e-06	0.00031224122797274517
7.58425e-06	0.00037636065152976456
7.58450e-06	0.00043908985542421685
7.58475e-06	0.0004996033678745719
7.58500e-06	0.0005580879517348351
7.58525e-06	0.0006149315891305071
7.58550e-06	0.0006673329942880907
7.58575e-06	0.0007168307518607715
7.58600e-06	0.0007653235248717507
7.58625e-06	0.0008122044988404056
7.58650e-06	0.0008584452225010528
7.58675e-06	0.0009036591096587456
7.58700e-06	0.0009488729968162851
7.58725e-06	0.0009923912538241637
7.58750e-06	0.0010331900510964476
7.58775e-06	0.0010739888483685934
7.58800e-06	0.0011135514746890831
7.58825e-06	0.0011511315241305897
7.58850e-06	0.0011887115735720961
7.58875e-06	0.00122629162301373
7.58900e-06	0.0012638716724552364
7.58925e-06	0.0013014517218967428
7.58950e-06	0.001337311133564981
7.58975e-06	0.0013704109781510852
7.59000e-06	0.0014035108227371893
7.59025e-06	0.0014366106673234056
7.59050e-06	0.0014697105119095097
7.59075e-06	0.0015028103564956139
7.59100e-06	0.0015347526446799849
7.59125e-06	0.0015648384383763288
7.59150e-06	0.001593972362630395
7.59175e-06	0.001621579674125137
7.59200e-06	0.0016484281726477574
7.59225e-06	0.0016740596833004458
7.59250e-06	0.0016991514137850428
7.59275e-06	0.0017229288251607517
7.59300e-06	0.0017454677968444464
7.59325e-06	0.0017665854757929215
7.59350e-06	0.0017860489172397043
7.59375e-06	0.001803188259876312
7.59400e-06	0.0018164857996275925
7.59425e-06	0.0018243501607547088
7.59450e-06	0.0018261837811578965
7.59475e-06	0.0018220873560230847
7.59500e-06	0.0018122542781957706
7.59525e-06	0.0017968778865295166
7.59550e-06	0.0017750097105715431
7.59575e-06	0.001748088259945438
7.59600e-06	0.0017161340846672045
7.59625e-06	0.0016761084015473114
7.59650e-06	0.001630966140739075
7.59675e-06	0.0015776178881893076
7.59700e-06	0.0015197941502920456
7.59725e-06	0.0014547926076118598
7.59750e-06	0.0013858654641438486
7.59775e-06	0.0013106424233768346
7.59800e-06	0.001231440420798495
7.59825e-06	0.001145856940257832
7.59850e-06	0.001056715082022787
7.59875e-06	0.0009618662806405795
7.59900e-06	0.0008643336902959342
7.59925e-06	0.0007624968263907428
7.59950e-06	0.0006587935170761952
7.59975e-06	0.0005520967936979318
7.60000e-06	0.00044397302622094443
7.60025e-06	0.0003335605586002348
7.60050e-06	0.000222457275867734
7.60075e-06	0.0001102460605575551
7.60100e-06	-1.846313584102406e-06
7.60125e-06	-0.00011332638224469512
7.60150e-06	-0.00022345932093497764
7.60175e-06	-0.0003316514056888393
7.60200e-06	-0.0004374395053183683
7.60225e-06	-0.0005403718170720468
7.60250e-06	-0.0006398435727356769
7.60275e-06	-0.000735142560770038
7.60300e-06	-0.000825542407774886
7.60325e-06	-0.0009103168521233125
7.60350e-06	-0.0009888214960692397
7.60375e-06	-0.0010605769274131195
7.60400e-06	-0.0011280139950410263
7.60425e-06	-0.0011938521992057723
7.60450e-06	-0.0012571261385100404
7.60475e-06	-0.0013179145316462497
7.60500e-06	-0.001374716593964171
7.60525e-06	-0.0014315186562819
7.60550e-06	-0.00148464887514636
7.60575e-06	-0.0015318901739387828
7.60600e-06	-0.0015791314727310458
7.60625e-06	-0.001624878036943688
7.60650e-06	-0.0016682273386967798
7.60675e-06	-0.0017115766404497245
7.60700e-06	-0.0017524703127831354
7.60725e-06	-0.0017894256349222258
7.60750e-06	-0.001826380957061191
7.60775e-06	-0.001863336279200156
7.60800e-06	-0.0019002916013392463
7.60825e-06	-0.0019351872014034494
7.60850e-06	-0.001966779409364234
7.60875e-06	-0.0019983716173251256
7.60900e-06	-0.00202996382528591
7.60925e-06	-0.002061556033246801
7.60950e-06	-0.002090938362255169
7.60975e-06	-0.0021167764768424933
7.61000e-06	-0.0021426145914299048
7.61025e-06	-0.002168452706017229
7.61050e-06	-0.002194290820604553
7.61075e-06	-0.0022201289351919643
7.61100e-06	-0.0022459670497792885
7.61125e-06	-0.0022695257618358055
7.61150e-06	-0.0022894287572242955
7.61175e-06	-0.002309331752612718
7.61200e-06	-0.002329234748001141
7.61225e-06	-0.002349137743389631
7.61250e-06	-0.0023690407387780537
7.61275e-06	-0.0023889437341664765
7.61300e-06	-0.0024072427053152042
7.61325e-06	-0.002422969134725483
7.61350e-06	-0.0024374375226903305
7.61375e-06	-0.002449888257775043
7.61400e-06	-0.0024592001486035803
7.61425e-06	-0.0024634779460194476
7.61450e-06	-0.0024628846219807983
7.61475e-06	-0.0024544789700836063
7.61500e-06	-0.002446073318186386
7.61525e-06	-0.0024322407436918442
7.61550e-06	-0.00240970444481087
7.61575e-06	-0.0023871681459298193
7.61600e-06	-0.0023594044489245515
7.61625e-06	-0.002323257025836001
7.61650e-06	-0.0022816997890604835
7.61675e-06	-0.0022314662672513028
7.61700e-06	-0.002181232745442122
7.61725e-06	-0.0021255934040121174
7.61750e-06	-0.0020612841832510567
7.61775e-06	-0.001996974962489778
7.61800e-06	-0.001928405935956886
7.61825e-06	-0.0018530050125781204
7.61850e-06	-0.0017745263407432622
7.61875e-06	-0.0016911115612329131
7.61900e-06	-0.001605867640966287
7.61925e-06	-0.0015167304423771815
7.61950e-06	-0.0014252777433715015
7.61975e-06	-0.001331907111665465
7.62000e-06	-0.0012368250974758308
7.62025e-06	-0.0011402195553420593
7.62050e-06	-0.0010424995187074911
7.62075e-06	-0.0009442299547713207
7.62100e-06	-0.0008459964191050416
7.62125e-06	-0.0007483844942750747
7.62150e-06	-0.0006519726270101474
7.62175e-06	-0.0005572777032069568
7.62200e-06	-0.0004646967588451016
7.62225e-06	-0.00037461530180310564
7.62250e-06	-0.00028755726816319653
7.62275e-06	-0.00020414423455716074
7.62300e-06	-0.00012501067403285728
7.62325e-06	-5.079097796767348e-05
7.62350e-06	1.791957118000453e-05
7.62375e-06	8.088708077849796e-05
7.62400e-06	0.0001386537948865634
7.62425e-06	0.00019204958675390102
7.62450e-06	0.00024133442554388597
7.62475e-06	0.00028629719304791747
7.62500e-06	0.00032665950880726355
7.62525e-06	0.00036214311552709873
7.62550e-06	0.0003924942547188993
7.62575e-06	0.00041768556126725955
7.62600e-06	0.00043817584238853443
7.62625e-06	0.0004546040239020294
7.62650e-06	0.0004672520022445637
7.62675e-06	0.00047610660276465135
7.62700e-06	0.00048111250350904507
7.62725e-06	0.0004822144586585248
7.62750e-06	0.00047937260485012776
7.62775e-06	0.000472688909323983
7.62800e-06	0.00046256979112545597
7.62825e-06	0.00044953450586598254
7.62850e-06	0.0004338786581921603
7.62875e-06	0.00041571293607301385
7.62900e-06	0.0003951217115129875
7.62925e-06	0.0003721893453390687
7.62950e-06	0.0003470098153917517
7.62975e-06	0.00031949931676427854
7.63000e-06	0.0002904036935879308
7.63025e-06	0.00026049262981379424
7.63050e-06	0.00022927375851415117
7.63075e-06	0.00019748711411909535
7.63100e-06	0.00016478987252097603
7.63125e-06	0.00013209263092285668
7.63150e-06	9.921095530592e-05
7.63175e-06	6.61061800976813e-05
7.63200e-06	3.3354324465953033e-05
7.63225e-06	1.3524014389458939e-06
7.63250e-06	-2.959039743570676e-05
7.63275e-06	-5.923743526729929e-05
7.63300e-06	-8.736245313082534e-05
7.63325e-06	-0.00011373920288330021
7.63350e-06	-0.00013814271843813484
7.63375e-06	-0.00016036593866355437
7.63400e-06	-0.00018025873571229955
7.63425e-06	-0.0001977414568015397
7.63450e-06	-0.0002127687771159222
7.63475e-06	-0.00022529848809487837
7.63500e-06	-0.00023528735262393974
7.63525e-06	-0.00024269215151480176
7.63550e-06	-0.00024747047594244346
7.63575e-06	-0.00024959113671034515
7.63600e-06	-0.0002490586048159981
7.63625e-06	-0.00024592151798837866
7.63650e-06	-0.0002402500109579591
7.63675e-06	-0.00023211617001596781
7.63700e-06	-0.00022159142830009527
7.63725e-06	-0.00020874720882442822
7.63750e-06	-0.00019365547006556282
7.63775e-06	-0.00017639519521081041
7.63800e-06	-0.00015706769338565685
7.63825e-06	-0.0001358019306870551
7.63850e-06	-0.00011274033376358905
7.63875e-06	-8.80265421479222e-05
7.63900e-06	-6.18037774771295e-05
7.63925e-06	-3.4215256616657276e-05
7.63950e-06	-5.404511930127815e-06
7.63975e-06	2.4480534156661505e-05
7.64000e-06	5.527797737783478e-05
7.64025e-06	8.68910597098758e-05
7.64050e-06	0.00011901702100730033
7.64075e-06	0.00015131446681188997
7.64100e-06	0.0001838869402888413
7.64125e-06	0.00021645941376579263
7.64150e-06	0.0002486542803219192
7.64175e-06	0.00028024353909433667
7.64200e-06	0.00031183279786696814
7.64225e-06	0.00034258595550503546
7.64250e-06	0.00037199817014908944
7.64275e-06	0.0004003550571126947
7.64300e-06	0.000427019404500545
7.64325e-06	0.0004523146459675151
7.64350e-06	0.00047541410881846575
7.64375e-06	0.000497640128623627
