Time(s)	Current(A)
2.05000e-06	0.009425358856842888
2.05025e-06	0.009411296817288793
2.05050e-06	0.009397234777734674
2.05075e-06	0.009383172738180555
2.05100e-06	0.00936911069862646
2.05125e-06	0.009355048659072341
2.05150e-06	0.009340986619518222
2.05175e-06	0.009326924579964103
2.05200e-06	0.009306005091687577
2.05225e-06	0.009278335381580429
2.05250e-06	0.009250665671473281
2.05275e-06	0.00922299596136618
2.05300e-06	0.009195326251259033
2.05325e-06	0.009167656541151885
2.05350e-06	0.009139986831044737
2.05375e-06	0.009112317120937637
2.05400e-06	0.009072336128812857
2.05425e-06	0.009020236360740489
2.05450e-06	0.008968136592668211
2.05475e-06	0.008916036824595845
2.05500e-06	0.008863937056523477
2.05525e-06	0.0088118372884512
2.05550e-06	0.008759737520378832
2.05575e-06	0.008707637752306466
2.05600e-06	0.008655537984234098
2.05625e-06	0.00860343821616182
2.05650e-06	0.00854403815070366
2.05675e-06	0.008477451939379923
2.05700e-06	0.008410865728056298
2.05725e-06	0.008344279516732559
2.05750e-06	0.00827769330540882
2.05775e-06	0.008211107094085082
2.05800e-06	0.008144520882761458
2.05825e-06	0.00807793467143772
2.05850e-06	0.008011348460113981
2.05875e-06	0.007944762248790356
2.05900e-06	0.007881345536823629
2.05925e-06	0.00782104876415487
2.05950e-06	0.007760751991486212
2.05975e-06	0.007700455218817453
2.06000e-06	0.007640158446148695
2.06025e-06	0.007579861673479935
2.06050e-06	0.007527859498635171
2.06075e-06	0.007484022222658235
2.06100e-06	0.007440184946681299
2.06125e-06	0.0073963476707044375
2.06150e-06	0.007352510394727501
2.06175e-06	0.007308673118750565
2.06200e-06	0.007275081903197761
2.06225e-06	0.007251576534956041
2.06250e-06	0.007228071166714282
2.06275e-06	0.007204565798472523
2.06300e-06	0.007181060430230804
2.06325e-06	0.0071575550619890444
2.06350e-06	0.007134049693747285
2.06375e-06	0.007110544325505566
2.06400e-06	0.007087038957263806
2.06425e-06	0.007063533589022047
2.06450e-06	0.0070400282207802875
2.06475e-06	0.007016522852538568
2.06500e-06	0.006993017484296809
2.06525e-06	0.00696951211605505
2.06550e-06	0.006946006747813331
2.06575e-06	0.006922501379571571
2.06600e-06	0.006899055575347905
2.06625e-06	0.006890668197128503
2.06650e-06	0.006882280818909115
2.06675e-06	0.006873893440689714
2.06700e-06	0.006865506062470312
2.06725e-06	0.006857118684250925
2.06750e-06	0.0068487313060315224
2.06775e-06	0.006840343927812121
2.06800e-06	0.0068319565495927334
2.06825e-06	0.006823569171373332
2.06850e-06	0.00681518179315393
2.06875e-06	0.006806794414934528
2.06900e-06	0.006798407036715141
2.06925e-06	0.006790019658495738
2.06950e-06	0.006781632280276337
2.06975e-06	0.006773244902056949
2.07000e-06	0.006764857523837548
2.07025e-06	0.006759428201563899
2.07050e-06	0.006756910681424283
2.07075e-06	0.0067543931612846705
2.07100e-06	0.006751875641145055
2.07125e-06	0.006749358121005439
2.07150e-06	0.006746840600865826
2.07175e-06	0.006754932964843875
2.07200e-06	0.006773469310877101
2.07225e-06	0.0067920056569102955
2.07250e-06	0.0068105420029435215
2.07275e-06	0.006829078348976747
2.07300e-06	0.006847614695009973
2.07325e-06	0.006884308028808381
2.07350e-06	0.00693887443758982
2.07375e-06	0.006993440846371259
2.07400e-06	0.007048007255152605
2.07425e-06	0.007102573663934044
2.07450e-06	0.007157140072715483
2.07475e-06	0.007211706481496921
2.07500e-06	0.0072662728902782685
2.07525e-06	0.007320975132857378
2.07550e-06	0.007410017624191714
2.07575e-06	0.007499060115525898
2.07600e-06	0.007588102606860232
2.07625e-06	0.007677145098194568
2.07650e-06	0.007766187589528752
2.07675e-06	0.007855230080863087
2.07700e-06	0.007944272572197422
2.07725e-06	0.008033315063531757
2.07750e-06	0.00812788777645598
2.07775e-06	0.008227904237343004
2.07800e-06	0.008327920698230027
2.07825e-06	0.008427937159116881
2.07850e-06	0.008527953620003904
2.07875e-06	0.008627970080890928
2.07900e-06	0.00872798654177795
2.07925e-06	0.008820130316329545
2.07950e-06	0.008904524506257804
2.07975e-06	0.008988918696186062
2.08000e-06	0.009073312886114179
2.08025e-06	0.009157707076042437
2.08050e-06	0.009242101265970698
2.08075e-06	0.009326495455898812
2.08100e-06	0.009392492916035472
2.08125e-06	0.009440381307901605
2.08150e-06	0.009488269699767739
2.08175e-06	0.009536158091633792
2.08200e-06	0.009584046483499926
2.08225e-06	0.00963193487536606
2.08250e-06	0.009679823267232112
2.08275e-06	0.009727711659098246
2.08300e-06	0.00977560005096438
2.08325e-06	0.009823488442830514
2.08350e-06	0.009871376834696566
2.08375e-06	0.0099192652265627
2.08400e-06	0.009967153618428834
2.08425e-06	0.010002952413901107
2.08450e-06	0.010026850652647126
2.08475e-06	0.010050748891393145
2.08500e-06	0.010074647130139124
2.08525e-06	0.010098545368885143
2.08550e-06	0.010122443607631164
2.08575e-06	0.010146341846377183
2.08600e-06	0.010170240085123163
2.08625e-06	0.010194138323869182
2.08650e-06	0.0102180365626152
2.08675e-06	0.01024193480136118
2.08700e-06	0.010265833040107199
2.08725e-06	0.010289731278853218
2.08750e-06	0.010308798310458446
2.08775e-06	0.010323109678370399
2.08800e-06	0.01033742104628235
2.08825e-06	0.010351732414194303
2.08850e-06	0.010366043782106229
2.08875e-06	0.010380355150018181
2.08900e-06	0.010394666517930133
2.08925e-06	0.010406554731721545
2.08950e-06	0.010416057681180759
2.08975e-06	0.010425560630639973
2.09000e-06	0.010435063580099189
2.09025e-06	0.010444566529558386
2.09050e-06	0.010454069479017601
2.09075e-06	0.010463572428476816
2.09100e-06	0.010465441235348302
2.09125e-06	0.010459795271340189
2.09150e-06	0.010454149307332076
2.09175e-06	0.010448503343323971
2.09200e-06	0.010442857379315858
2.09225e-06	0.010437211415307745
2.09250e-06	0.010431433869823706
2.09275e-06	0.010392391108131125
2.09300e-06	0.010353348346438475
2.09325e-06	0.010314305584745826
2.09350e-06	0.010275262823053242
2.09375e-06	0.010236220061360593
2.09400e-06	0.010197177299667943
2.09425e-06	0.010138268693441331
2.09450e-06	0.01005980487609748
2.09475e-06	0.009981341058753495
2.09500e-06	0.009902877241409511
2.09525e-06	0.009824413424065658
2.09550e-06	0.009745949606721675
2.09575e-06	0.00966748578937769
2.09600e-06	0.009589021972033838
2.09625e-06	0.009510452712025283
2.09650e-06	0.00940522640917713
2.09675e-06	0.009300000106328976
2.09700e-06	0.009194773803481002
2.09725e-06	0.00908954750063285
2.09750e-06	0.008984321197784695
2.09775e-06	0.00887909489493672
2.09800e-06	0.008773868592088566
2.09825e-06	0.008668642289240414
2.09850e-06	0.008562481493862573
2.09875e-06	0.00845540081820119
2.09900e-06	0.008348320142539625
2.09925e-06	0.008244714078087013
2.09950e-06	0.008144528293886354
2.09975e-06	0.008044342509685528
2.10000e-06	0.007950093992810051
2.10025e-06	0.007861689904839547
2.10050e-06	0.007773285816868892
2.10075e-06	0.0077003771554925845
2.10100e-06	0.007642721625585445
2.10125e-06	0.007585066095678404
2.10150e-06	0.007527410565771265
2.10175e-06	0.007469755035864126
2.10200e-06	0.0074120995059570845
2.10225e-06	0.007354642754473862
2.10250e-06	0.007347439332560198
2.10275e-06	0.007340235910646534
2.10300e-06	0.007333032488732884
2.10325e-06	0.00732582906681922
2.10350e-06	0.007318625644905557
2.10375e-06	0.007311422222991906
2.10400e-06	0.007332039989051818
2.10425e-06	0.00738004391548676
2.10450e-06	0.007428047841921622
2.10475e-06	0.007476051768356564
2.10500e-06	0.007524055694791506
2.10525e-06	0.007572059621226449
2.10550e-06	0.00762006354766131
2.10575e-06	0.0076680674740962525
2.10600e-06	0.007716231893490522
2.10625e-06	0.00780497066409802
2.10650e-06	0.00789370943470567
2.10675e-06	0.007982448205313318
2.10700e-06	0.008071186975920967
2.10725e-06	0.008159925746528464
2.10750e-06	0.008248664517136113
2.10775e-06	0.008337403287743761
2.10800e-06	0.008426142058351259
2.10825e-06	0.008518674727646114
2.10850e-06	0.008614941972114246
2.10875e-06	0.008711209216582217
2.10900e-06	0.008807476461050349
2.10925e-06	0.00890374370551848
2.10950e-06	0.009000010949986613
2.10975e-06	0.009086972697533426
2.11000e-06	0.009164774454094228
2.11025e-06	0.00924257621065503
2.11050e-06	0.009320377967215701
2.11075e-06	0.009398179723776504
2.11100e-06	0.009475981480337306
2.11125e-06	0.00953261119263892
2.11150e-06	0.00956839991856248
2.11175e-06	0.0096041886444861
2.11200e-06	0.00963997737040972
2.11225e-06	0.009675766096333279
2.11250e-06	0.009711554822256899
2.11275e-06	0.009747343548180519
2.11300e-06	0.009783132274104078
2.11325e-06	0.009818921000027698
2.11350e-06	0.009854709725951318
2.11375e-06	0.009890498451874938
2.11400e-06	0.009926287177798497
2.11425e-06	0.009962075903722119
2.11450e-06	0.009997711123287923
2.11475e-06	0.009994538279743356
2.11500e-06	0.009991365436198784
2.11525e-06	0.00998819259265421
2.11550e-06	0.009985019749109638
2.11575e-06	0.009981846905565072
2.11600e-06	0.0099786740620205
2.11625e-06	0.009975501218475928
2.11650e-06	0.009972328374931361
2.11675e-06	0.009969155531386789
2.11700e-06	0.009965982687842217
2.11725e-06	0.00996280984429765
2.11750e-06	0.009959637000753079
2.11775e-06	0.009956464157208507
2.11800e-06	0.0099472368187634
2.11825e-06	0.009932049656873485
2.11850e-06	0.00991686249498354
2.11875e-06	0.009901675333093597
2.11900e-06	0.00988648817120368
2.11925e-06	0.009871301009313736
2.11950e-06	0.009856113847423794
2.11975e-06	0.00984092668553385
2.12000e-06	0.009825739523643932
2.12025e-06	0.00981055236175399
2.12050e-06	0.009795365199864046
2.12075e-06	0.009783520824160176
2.12100e-06	0.009774966964975089
2.12125e-06	0.00976641310579
2.12150e-06	0.009757859246604925
2.12175e-06	0.009749305387419837
2.12200e-06	0.009740751528234748
2.12225e-06	0.00973219766904966
2.12250e-06	0.009723643809864584
2.12275e-06	0.009715089950679497
2.12300e-06	0.009706536091494408
2.12325e-06	0.009697982232309332
2.12350e-06	0.009695392697303224
2.12375e-06	0.009698674224980323
2.12400e-06	0.009701955752657422
2.12425e-06	0.009705237280334515
2.12450e-06	0.009708518808011614
2.12475e-06	0.009711800335688713
2.12500e-06	0.009715081863365805
2.12525e-06	0.009718363391042904
2.12550e-06	0.009721644918720003
2.12575e-06	0.009724926446397095
2.12600e-06	0.009728207974074194
2.12625e-06	0.009731489501751293
2.12650e-06	0.00973477102942839
2.12675e-06	0.009738052557105484
2.12700e-06	0.009741334084782583
2.12725e-06	0.009744615612459682
2.12750e-06	0.009747897140136774
2.12775e-06	0.009751178667813873
2.12800e-06	0.00975446713613068
2.12825e-06	0.009759510273043106
2.12850e-06	0.009764553409955523
2.12875e-06	0.009769596546867947
2.12900e-06	0.009774639683780372
2.12925e-06	0.009779682820692788
2.12950e-06	0.009784725957605213
2.12975e-06	0.009789769094517639
2.13000e-06	0.009794812231430054
2.13025e-06	0.00979985536834248
2.13050e-06	0.009804898505254903
2.13075e-06	0.009809941642167329
2.13100e-06	0.009814984779079746
2.13125e-06	0.00982002791599217
2.13150e-06	0.009825071052904595
2.13175e-06	0.00983011418981701
2.13200e-06	0.009835157326729436
2.13225e-06	0.009840200463641861
2.13250e-06	0.009845243600554285
2.13275e-06	0.009844677982566446
2.13300e-06	0.009838591311294607
2.13325e-06	0.009832504640022766
2.13350e-06	0.009826417968750938
2.13375e-06	0.009820331297479097
2.13400e-06	0.009814244626207258
2.13425e-06	0.009808157954935427
2.13450e-06	0.009802071283663588
2.13475e-06	0.009795984612391747
2.13500e-06	0.009789897941119908
2.13525e-06	0.009783811269848078
2.13550e-06	0.009777724598576239
2.13575e-06	0.009771637927304398
2.13600e-06	0.00976555125603257
2.13625e-06	0.009759464584760728
2.13650e-06	0.00975337791348889
2.13675e-06	0.009747291242217048
2.13700e-06	0.00974120457094522
2.13725e-06	0.009735103554468182
2.13750e-06	0.009725375915347202
2.13775e-06	0.00971564827622624
2.13800e-06	0.00970592063710526
2.13825e-06	0.009696192997984283
2.13850e-06	0.00968646535886332
2.13875e-06	0.009676737719742342
2.13900e-06	0.009667010080621362
2.13925e-06	0.009657282441500385
2.13950e-06	0.009647554802379422
2.13975e-06	0.009637827163258443
2.14000e-06	0.009628099524137464
2.14025e-06	0.009618371885016502
2.14050e-06	0.009608644245895524
2.14075e-06	0.009598916606774545
2.14100e-06	0.009589188967653565
2.14125e-06	0.009579461328532603
2.14150e-06	0.009569733689411625
2.14175e-06	0.009560006050290646
2.14200e-06	0.009549441365330882
2.14225e-06	0.009538052723047296
2.14250e-06	0.009526664080763709
2.14275e-06	0.009515275438480141
2.14300e-06	0.009503886796196554
2.14325e-06	0.009492498153912968
2.14350e-06	0.00948110951162938
2.14375e-06	0.009469720869345813
2.14400e-06	0.009458332227062225
2.14425e-06	0.009446943584778638
2.14450e-06	0.00943555494249507
2.14475e-06	0.009424166300211484
2.14500e-06	0.009412777657927897
2.14525e-06	0.00940138901564431
2.14550e-06	0.009390000373360742
2.14575e-06	0.009378611731077156
2.14600e-06	0.009367223088793569
2.14625e-06	0.009355834446510001
2.14650e-06	0.009344445804226414
2.14675e-06	0.009333052121750738
2.14700e-06	0.009320384224330708
2.14725e-06	0.009307716326910657
2.14750e-06	0.009295048429490605
2.14775e-06	0.009282380532070554
2.14800e-06	0.009269712634650524
2.14825e-06	0.009257044737230474
2.14850e-06	0.009244376839810421
2.14875e-06	0.009231708942390393
2.14900e-06	0.00921904104497034
2.14925e-06	0.00920637314755029
2.14950e-06	0.00919370525013024
2.14975e-06	0.00918103735271021
2.15000e-06	0.009168369455290157
2.15025e-06	0.009155701557870106
2.15050e-06	0.009143033660450077
2.15075e-06	0.009130365763030026
2.15100e-06	0.009117697865609974
2.15125e-06	0.009105029968189944
2.15150e-06	0.009092362070769893
2.15175e-06	0.009078764319315888
2.15200e-06	0.009064251253543489
2.15225e-06	0.009049738187771116
2.15250e-06	0.00903522512199872
2.15275e-06	0.009020712056226322
2.15300e-06	0.00900619899045395
2.15325e-06	0.008991685924681553
2.15350e-06	0.008977172858909156
2.15375e-06	0.008962659793136759
2.15400e-06	0.008948146727364386
2.15425e-06	0.00893363366159199
2.15450e-06	0.008919120595819592
2.15475e-06	0.00890460753004722
2.15500e-06	0.008890094464274821
2.15525e-06	0.008872039829455386
2.15550e-06	0.008850499003534977
2.15575e-06	0.008828958177614532
2.15600e-06	0.008807417351694085
2.15625e-06	0.00878587652577364
2.15650e-06	0.00876433569985323
2.15675e-06	0.008742794873932785
2.15700e-06	0.00872125404801234
2.15725e-06	0.008699713222091931
2.15750e-06	0.008678172396171486
2.15775e-06	0.00865663157025104
2.15800e-06	0.008635090744330593
2.15825e-06	0.008613549918410185
2.15850e-06	0.00859200909248974
2.15875e-06	0.008572501221872959
2.15900e-06	0.008554994518138586
2.15925e-06	0.008537487814404181
2.15950e-06	0.008519981110669778
2.15975e-06	0.008502474406935403
2.16000e-06	0.008484967703201
2.16025e-06	0.008467460999466596
2.16050e-06	0.008449954295732191
2.16075e-06	0.008432447591997818
2.16100e-06	0.008414940888263413
2.16125e-06	0.00839743418452901
2.16150e-06	0.008379927480794636
2.16175e-06	0.008362493096870798
2.16200e-06	0.008363341941518205
2.16225e-06	0.008364190786165612
2.16250e-06	0.00836503963081302
2.16275e-06	0.008365888475460428
2.16300e-06	0.008366737320107835
2.16325e-06	0.008367586164755242
2.16350e-06	0.00836843500940265
2.16375e-06	0.008369283854050056
2.16400e-06	0.008370132698697463
2.16425e-06	0.00837098154334487
2.16450e-06	0.00837183038799228
2.16475e-06	0.008372679232639686
2.16500e-06	0.008382599600364684
2.16525e-06	0.008401449643780706
2.16550e-06	0.00842029968719673
2.16575e-06	0.008439149730612718
2.16600e-06	0.008457999774028741
2.16625e-06	0.008476849817444763
2.16650e-06	0.008495699860860753
2.16675e-06	0.008514549904276775
2.16700e-06	0.008533399947692796
2.16725e-06	0.008552249991108818
2.16750e-06	0.008571100034524808
2.16775e-06	0.00858995007794083
2.16800e-06	0.008608806186071188
2.16825e-06	0.008629195519438502
2.16850e-06	0.008649584852805852
2.16875e-06	0.0086699741861732
2.16900e-06	0.008690363519540549
2.16925e-06	0.008710752852907865
2.16950e-06	0.008731142186275213
2.16975e-06	0.008751531519642562
2.17000e-06	0.008771920853009877
2.17025e-06	0.008792310186377226
2.17050e-06	0.008812699519744576
2.17075e-06	0.00883308885311189
2.17100e-06	0.008853478186479238
2.17125e-06	0.008862681411535888
2.17150e-06	0.008860873440500154
2.17175e-06	0.008859065469464423
2.17200e-06	0.00885725749842869
2.17225e-06	0.008855449527392955
2.17250e-06	0.008853641556357225
2.17275e-06	0.00885183358532149
2.17300e-06	0.008850025614285757
2.17325e-06	0.008848092184458388
2.17350e-06	0.008814441418057706
2.17375e-06	0.008780790651656965
2.17400e-06	0.008747139885256225
2.17425e-06	0.008713489118855543
2.17450e-06	0.008679838352454802
2.17475e-06	0.008646187586054063
2.17500e-06	0.008612536819653379
2.17525e-06	0.00857888605325264
2.17550e-06	0.008532087617998032
2.17575e-06	0.008472347098160698
2.17600e-06	0.008412606578323463
2.17625e-06	0.00835286605848613
2.17650e-06	0.008293125538648794
2.17675e-06	0.008233385018811561
2.17700e-06	0.008173644498974227
2.17725e-06	0.008113903979136892
2.17750e-06	0.008054163459299558
2.17775e-06	0.007994404942228693
2.17800e-06	0.007930096530247769
2.17825e-06	0.007865788118266845
2.17850e-06	0.007801479706286029
2.17875e-06	0.007737171294305104
2.17900e-06	0.00767286288232418
2.17925e-06	0.007608554470343364
2.17950e-06	0.00754424605836244
2.17975e-06	0.007479937646381516
2.18000e-06	0.007415629234400591
2.18025e-06	0.007362987524901363
2.18050e-06	0.007321830090827776
2.18075e-06	0.0072806726567541885
2.18100e-06	0.007239515222680671
2.18125e-06	0.007198357788607084
2.18150e-06	0.007157200354533497
2.18175e-06	0.007116042920459909
2.18200e-06	0.0070748854863863925
2.18225e-06	0.007033728052312805
2.18250e-06	0.006992570618239218
2.18275e-06	0.0069514131841657
2.18300e-06	0.006910255750092113
2.18325e-06	0.006877175887526868
2.18350e-06	0.006852047291064601
2.18375e-06	0.006826918694602292
2.18400e-06	0.0068017900981399825
2.18425e-06	0.006776661501677673
2.18450e-06	0.006751532905215406
2.18475e-06	0.006726404308753097
2.18500e-06	0.006701275712290788
2.18525e-06	0.006676147115828521
2.18550e-06	0.006651018519366211
2.18575e-06	0.006625889922903902
2.18600e-06	0.006600761326441593
2.18625e-06	0.006579981275109422
2.18650e-06	0.006563481772634651
2.18675e-06	0.00654698227015988
2.18700e-06	0.0065304827676851375
2.18725e-06	0.006513983265210366
2.18750e-06	0.006497483762735595
2.18775e-06	0.006480984260260852
2.18800e-06	0.006464484757786082
2.18825e-06	0.006447985255311311
2.18850e-06	0.00643148575283654
2.18875e-06	0.006414986250361797
2.18900e-06	0.006398486747887027
2.18925e-06	0.006381987245412255
2.18950e-06	0.006365487742937513
2.18975e-06	0.006348988240462742
2.19000e-06	0.006332488737987971
2.19025e-06	0.0063159892355132
2.19050e-06	0.006301979131798373
2.19075e-06	0.006290419501218565
2.19100e-06	0.006278859870638757
2.19125e-06	0.006267300240058968
2.19150e-06	0.00625574060947916
2.19175e-06	0.0062441809788993516
2.19200e-06	0.006232621348319563
2.19225e-06	0.006221061717739755
2.19250e-06	0.006209502087159947
2.19275e-06	0.006197942456580139
2.19300e-06	0.00618638282600035
2.19325e-06	0.006174823195420542
2.19350e-06	0.006163263564840734
2.19375e-06	0.006151703934260945
2.19400e-06	0.006140144303681137
2.19425e-06	0.0061285846731013284
2.19450e-06	0.006117025042521521
2.19475e-06	0.006103661451038298
2.19500e-06	0.00608852210638852
2.19525e-06	0.006073382761738743
2.19550e-06	0.0060582434170889906
2.19575e-06	0.006043104072439213
2.19600e-06	0.006027964727789436
2.19625e-06	0.0060128253831396835
2.19650e-06	0.005997686038489906
2.19675e-06	0.005982546693840129
2.19700e-06	0.00596740734919035
2.19725e-06	0.005952872881399713
2.19750e-06	0.005938922299284196
2.19775e-06	0.005924971717168678
2.19800e-06	0.005911021135053184
2.19825e-06	0.005897070552937666
2.19850e-06	0.005883119970822148
2.19875e-06	0.005869169388706631
2.19900e-06	0.0058552188065911365
2.19925e-06	0.005841268224475619
2.19950e-06	0.005827317642360101
2.19975e-06	0.0058053083022688
2.20000e-06	0.0044172950367651126
2.20025e-06	-0.015642499150637753
2.20050e-06	-0.013549790120070734
2.20075e-06	-0.00946897033681505
2.20100e-06	-0.005254741067965772
2.20125e-06	0.010327480945516316
2.20150e-06	0.010670234109348307
2.20175e-06	0.009723054727262474
