Time(s)	Current(A)
5.00000e-06	-0.001077687090304138
5.00025e-06	-0.001151618500173391
5.00050e-06	-0.0012241855835808304
5.00075e-06	-0.0012925504029399721
5.00100e-06	-0.0013584440362310974
5.00125e-06	-0.0014243376695224459
5.00150e-06	-0.001484193038377948
5.00175e-06	-0.0015404975416101886
5.00200e-06	-0.0015913806187715853
5.00225e-06	-0.001639075568670454
5.00250e-06	-0.0016823962039369054
5.00275e-06	-0.0017231444769595164
5.00300e-06	-0.0017638927499819892
5.00325e-06	-0.0017990105631706403
5.00350e-06	-0.0018308173245696596
5.00375e-06	-0.001862624085968571
5.00400e-06	-0.0018884194620175858
5.00425e-06	-0.0019106797789756158
5.00450e-06	-0.0019329400959336458
5.00475e-06	-0.0019502759933338598
5.00500e-06	-0.001964716033437951
5.00525e-06	-0.001979156073542042
5.00550e-06	-0.001993596113646182
5.00575e-06	-0.002002354305991485
5.00600e-06	-0.0020077712273314143
5.00625e-06	-0.0020131881486713616
5.00650e-06	-0.0020186050700112907
5.00675e-06	-0.0020205203551085676
5.00700e-06	-0.002020376465770789
5.00725e-06	-0.002020232576433011
5.00750e-06	-0.0020173899291438886
5.00775e-06	-0.002012960248538144
5.00800e-06	-0.0020085305679324148
5.00825e-06	-0.002002145556016061
5.00850e-06	-0.0019946106907261347
5.00875e-06	-0.001987075825436208
5.00900e-06	-0.001978524539736402
5.00925e-06	-0.001969375537204238
5.00950e-06	-0.0019602265346720734
5.00975e-06	-0.0019503658228202905
5.01000e-06	-0.0019400865827336159
5.01025e-06	-0.0019298073426469412
5.01050e-06	-0.0019197900514686304
5.01075e-06	-0.0019099268021319506
5.01100e-06	-0.001900063552795271
5.01125e-06	-0.0018919561130073758
5.01150e-06	-0.0018848811956989609
5.01175e-06	-0.001877806278390546
5.01200e-06	-0.0018707313610821072
5.01225e-06	-0.0018636564437736923
5.01250e-06	-0.0018565815264652533
5.01275e-06	-0.0018502900325806206
5.01300e-06	-0.0018492554406605202
5.01325e-06	-0.0018482208487404163
5.01350e-06	-0.001847186256820316
5.01375e-06	-0.0018461516649002153
5.01400e-06	-0.0018451170729801114
5.01425e-06	-0.001844082481060011
5.01450e-06	-0.0018481188323621507
5.01475e-06	-0.0018551372057590116
5.01500e-06	-0.0018621555791558486
5.01525e-06	-0.0018691739525526856
5.01550e-06	-0.0018761923259495465
5.01575e-06	-0.0018832106993463835
5.01600e-06	-0.0018902290727432207
5.01625e-06	-0.0018972474461400816
5.01650e-06	-0.0019042658195369186
5.01675e-06	-0.0019121138508908838
5.01700e-06	-0.001925529025645708
5.01725e-06	-0.0019389442004005323
5.01750e-06	-0.001952359375155402
5.01775e-06	-0.0019657745499102263
5.01800e-06	-0.0019791897246650503
5.01825e-06	-0.0019926048994199203
5.01850e-06	-0.0020060200741747443
5.01875e-06	-0.0020194352489295688
5.01900e-06	-0.0020328504236844383
5.01925e-06	-0.0020468960737602187
5.01950e-06	-0.0020613124815539747
5.01975e-06	-0.0020757288893477792
5.02000e-06	-0.002090145297141535
5.02025e-06	-0.002104561704935291
5.02050e-06	-0.002118655775140219
5.02075e-06	-0.002130586906310777
5.02100e-06	-0.002142518037481376
5.02125e-06	-0.002154449168651934
5.02150e-06	-0.0021663802998224927
5.02175e-06	-0.002178311430993091
5.02200e-06	-0.0021873631056705577
5.02225e-06	-0.0021947214853325946
5.02250e-06	-0.0022020798649946566
5.02275e-06	-0.0022094382446566935
5.02300e-06	-0.0022167966243187304
5.02325e-06	-0.002224155003980792
5.02350e-06	-0.002231513383642829
5.02375e-06	-0.002238871763304866
5.02400e-06	-0.002246230142966928
5.02425e-06	-0.002253588522628965
5.02450e-06	-0.0022609469022910017
5.02475e-06	-0.0022683052819530633
5.02500e-06	-0.002273848394776554
5.02525e-06	-0.002278324020629313
5.02550e-06	-0.0022827996464820565
5.02575e-06	-0.0022872752723348006
5.02600e-06	-0.0022917508981875594
5.02625e-06	-0.002296226524040303
5.02650e-06	-0.0023007021498930467
5.02675e-06	-0.002305177775745806
5.02700e-06	-0.0023096534015985496
5.02725e-06	-0.0023141290274512932
5.02750e-06	-0.0023186046533040525
5.02775e-06	-0.002323080279156796
5.02800e-06	-0.0023266683961803846
5.02825e-06	-0.0023297346041978957
5.02850e-06	-0.002332800812215396
5.02875e-06	-0.0023358670202328962
5.02900e-06	-0.002338933228250407
5.02925e-06	-0.002341999436267907
5.02950e-06	-0.0023450656442854183
5.02975e-06	-0.0023481318523029186
5.03000e-06	-0.002351198060320419
5.03025e-06	-0.0023541179739465564
5.03050e-06	-0.0023560562277837524
5.03075e-06	-0.0023579944816209484
5.03100e-06	-0.0023599327354581513
5.03125e-06	-0.0023618709892953473
5.03150e-06	-0.0023638092431325433
5.03175e-06	-0.0023657474969697462
5.03200e-06	-0.0023676857508069422
5.03225e-06	-0.0023696240046441382
5.03250e-06	-0.0023715622584813407
5.03275e-06	-0.0023739997810477793
5.03300e-06	-0.0023767309039003925
5.03325e-06	-0.0023794620267530153
5.03350e-06	-0.002382193149605629
5.03375e-06	-0.0023849242724582518
5.03400e-06	-0.0023876553953108655
5.03425e-06	-0.0023903865181634787
5.03450e-06	-0.0023931176410161015
5.03475e-06	-0.002395848763868715
5.03500e-06	-0.002398579886721329
5.03525e-06	-0.0024013110095739516
5.03550e-06	-0.002404042132426565
5.03575e-06	-0.0024079470283007976
5.03600e-06	-0.002412542173883966
5.03625e-06	-0.0024171373194671187
5.03650e-06	-0.0024217324650502715
5.03675e-06	-0.00242632761063344
5.03700e-06	-0.0024309227562165927
5.03725e-06	-0.0024355179017997454
5.03750e-06	-0.002440113047382914
5.03775e-06	-0.0024447081929660666
5.03800e-06	-0.0024493033385492346
5.03825e-06	-0.0024538984841323873
5.03850e-06	-0.00245849362971554
5.03875e-06	-0.0024633739379630436
5.03900e-06	-0.002468421939148103
5.03925e-06	-0.0024734699403331627
5.03950e-06	-0.002478517941518239
5.03975e-06	-0.0024835659427032987
5.04000e-06	-0.002488255210722755
5.04025e-06	-0.0024927335218889375
5.04050e-06	-0.0024972118330551045
5.04075e-06	-0.002501690144221272
5.04100e-06	-0.0025061684553874543
5.04125e-06	-0.0025102671556690415
5.04150e-06	-0.0025139672723514007
5.04175e-06	-0.0025173664917651204
5.04200e-06	-0.002520048876193781
5.04225e-06	-0.0025206609802126546
5.04250e-06	-0.0025175187064622427
5.04275e-06	-0.002508376948183801
5.04300e-06	-0.0024966562535822254
5.04325e-06	-0.0024783647465477154
5.04350e-06	-0.00245620920337933
5.04375e-06	-0.002434053660210869
5.04400e-06	-0.002405488456946351
5.04425e-06	-0.002373153984893598
5.04450e-06	-0.0023324325294541677
5.04475e-06	-0.0022867790192363023
5.04500e-06	-0.002241125509018437
5.04525e-06	-0.0021878466953975588
5.04550e-06	-0.0021300837410134703
5.04575e-06	-0.002068507963879225
5.04600e-06	-0.0020023380469012465
5.04625e-06	-0.0019322578579699177
5.04650e-06	-0.001858024058406018
5.04675e-06	-0.0017797275082148565
5.04700e-06	-0.0016977911691197164
5.04725e-06	-0.0016127248238145856
5.04750e-06	-0.00152503796176793
5.04775e-06	-0.0014352401932388504
5.04800e-06	-0.0013437476150896844
5.04825e-06	-0.0012507456619329754
5.04850e-06	-0.0011563386615780775
5.04875e-06	-0.001060840275737228
5.04900e-06	-0.0009647720509068023
5.04925e-06	-0.0008687098203769595
5.04950e-06	-0.0007732293010225351
5.04975e-06	-0.0006789062032639122
5.05000e-06	-0.0005862575404902457
5.05025e-06	-0.0004956559827194564
5.05050e-06	-0.0004074232947818139
5.05075e-06	-0.0003220123080807475
5.05100e-06	-0.00024000604930620183
5.05125e-06	-0.0001620215358293355
5.05150e-06	-8.867568638566661e-05
5.05175e-06	-2.0585256672585598e-05
5.05200e-06	4.201742520645866e-05
5.05225e-06	9.990570142698915e-05
5.05250e-06	0.00015436594088457704
5.05275e-06	0.00020602393962318097
5.05300e-06	0.0002547463057357956
5.05325e-06	0.0003001927556225305
5.05350e-06	0.0003420231409729932
5.05375e-06	0.00037989742018171887
5.05400e-06	0.0004137163853700854
5.05425e-06	0.0004440107727186095
5.05450e-06	0.00047163259306920517
5.05475e-06	0.000497020030173396
5.05500e-06	0.0005201356850823435
5.05525e-06	0.0005399727855116048
5.05550e-06	0.0005583900677744218
5.05575e-06	0.0005733134659660183
5.05600e-06	0.0005861822484714113
5.05625e-06	0.0005962874822100124
5.05650e-06	0.0006047675817055415
5.05675e-06	0.0006113529988814034
5.05700e-06	0.0006168242279689648
5.05725e-06	0.0006203225382706868
5.05750e-06	0.0006226606526980894
5.05775e-06	0.0006225081693656741
5.05800e-06	0.0006208910635327243
5.05825e-06	0.00061927395769978
5.05850e-06	0.0006159350509396758
5.05875e-06	0.000611583620832753
5.05900e-06	0.0006072321907258449
5.05925e-06	0.0006017233471861031
5.05950e-06	0.0005955338743679768
5.05975e-06	0.0005893444015498504
5.06000e-06	0.0005824114654373481
5.06025e-06	0.0005750413278278067
5.06050e-06	0.0005676711902182652
5.06075e-06	0.0005605583037860727
5.06100e-06	0.0005535966966446525
5.06125e-06	0.0005470796573639387
5.06150e-06	0.0005408240509417166
5.06175e-06	0.0005354097171416308
5.06200e-06	0.0005304901026539927
5.06225e-06	0.000525570488166338
5.06250e-06	0.0005225387873559148
5.06275e-06	0.0005206172942615003
5.06300e-06	0.0005186958011670793
5.06325e-06	0.0005188580358896556
5.06350e-06	0.0005202456289156228
5.06375e-06	0.0005216332219415853
5.06400e-06	0.0005251473782730393
5.06425e-06	0.0005299120827724492
5.06450e-06	0.0005346767872718429
5.06475e-06	0.0005417750606903969
5.06500e-06	0.0005502456141295362
5.06525e-06	0.0005587161675686467
5.06550e-06	0.0005691986327947347
5.06575e-06	0.0005808642241439786
5.06600e-06	0.000592529815493183
5.06625e-06	0.0006060118588048271
5.06650e-06	0.0006205620860110768
5.06675e-06	0.0006351123132172772
5.06700e-06	0.0006511776411812441
5.06725e-06	0.000668133940259021
5.06750e-06	0.0006850902393367405
5.06775e-06	0.0007029062781903679
5.06800e-06	0.0007212278961624736
5.06825e-06	0.0007400312484402582
5.06850e-06	0.0007591178896998143
5.06875e-06	0.0007784557526690479
5.06900e-06	0.0007980147291405697
5.06925e-06	0.0008176165275654883
5.06950e-06	0.0008371441656441711
5.06975e-06	0.0008564806308793116
5.07000e-06	0.0008755165648576179
5.07025e-06	0.000894160514035705
5.07050e-06	0.0009123255934156773
5.07075e-06	0.000929905824363217
5.07100e-06	0.0009467773336497053
5.07125e-06	0.0009628117302741645
5.07150e-06	0.0009778806663443304
5.07175e-06	0.0009918556473545903
5.07200e-06	0.0010046052702780757
5.07225e-06	0.0010160019703966661
5.07250e-06	0.0010259505921725142
5.07275e-06	0.0010344020201394515
5.07300e-06	0.0010413328471537016
5.07325e-06	0.0010467246493965742
5.07350e-06	0.0010500609451148566
5.07375e-06	0.0010525251082319673
5.07400e-06	0.0010529711040656478
5.07425e-06	0.0010522302951651995
5.07450e-06	0.0010489936043207085
5.07475e-06	0.0010442891835554676
5.07500e-06	0.0010395847627902106
5.07525e-06	0.0010321162434582948
5.07550e-06	0.0010230222665682475
5.07575e-06	0.0010139282896781691
5.07600e-06	0.0010016487281646863
5.07625e-06	0.0009874958497348976
5.07650e-06	0.0009733429713051568
5.07675e-06	0.0009591900928754162
5.07700e-06	0.0009450372144456276
5.07725e-06	0.0009280097204227211
5.07750e-06	0.0009092917781289877
5.07775e-06	0.0008905738358351909
5.07800e-06	0.0008718558935414576
5.07825e-06	0.0008531379512477242
5.07850e-06	0.0008331738261184288
5.07875e-06	0.0008124768699197662
5.07900e-06	0.0007917799137211037
5.07925e-06	0.0007709412314337978
5.07950e-06	0.0007500192056129366
5.07975e-06	0.0007290971797920753
5.08000e-06	0.0007085633368406409
5.08025e-06	0.0006882577689539606
5.08050e-06	0.0006688700118861621
5.08075e-06	0.0006500219832313086
5.08100e-06	0.0006311739545764551
5.08125e-06	0.0006134028242749195
5.08150e-06	0.0005969478264588875
5.08175e-06	0.0005816638124573671
5.08200e-06	0.000567361174727169
5.08225e-06	0.00055244434554856
5.08250e-06	0.0005369834303835379
5.08275e-06	0.0005189959117010049
5.08300e-06	0.0004995225969500653
5.08325e-06	0.00047839504551904085
5.08350e-06	0.00045538346495495546
5.08375e-06	0.0004310684280108554
5.08400e-06	0.0004054731952229593
5.08425e-06	0.0003781067750821096
5.08450e-06	0.00034827134776640805
5.08475e-06	0.0003156954607864677
5.08500e-06	0.00028054778182873594
5.08525e-06	0.0002431133920760982
5.08550e-06	0.00020367735060956954
5.08575e-06	0.00016252466369161096
5.08600e-06	0.00011981198366760421
5.08625e-06	7.537383958920905e-05
5.08650e-06	2.891524361099882e-05
5.08675e-06	-1.9591713152671176e-05
5.08700e-06	-6.989923109298724e-05
5.08725e-06	-0.00012168660850282327
5.08750e-06	-0.0001746331978417786
5.08775e-06	-0.00022858433238817394
5.08800e-06	-0.00028289962518848494
5.08825e-06	-0.0003380878239351388
5.08850e-06	-0.00039378934430688874
5.08875e-06	-0.00044949086467845
5.08900e-06	-0.000505268434536079
5.08925e-06	-0.000561090726102948
5.08950e-06	-0.0006169130176696279
5.08975e-06	-0.0006709937033098171
5.09000e-06	-0.0007240502190630863
5.09025e-06	-0.0007771067348163555
5.09050e-06	-0.0008278664265821986
5.09075e-06	-0.0008772754465758168
5.09100e-06	-0.0009240380800714394
5.09125e-06	-0.0009692444778434279
5.09150e-06	-0.00101090624505089
5.09175e-06	-0.0010504835545587666
5.09200e-06	-0.0010858468709602016
5.09225e-06	-0.0011187321039005178
5.09250e-06	-0.001147466240794952
5.09275e-06	-0.0011737592815139243
5.09300e-06	-0.0011957997698559004
5.09325e-06	-0.0012153394995479423
5.09350e-06	-0.0012303697005854235
5.09375e-06	-0.0012427480253399596
5.09400e-06	-0.0012505032695202876
5.09425e-06	-0.0012555398620038081
5.09450e-06	-0.0012562986846408198
5.09475e-06	-0.0012545419192267844
5.09500e-06	-0.0012487494790046206
5.09525e-06	-0.0012405838172933749
5.09550e-06	-0.0012275942760193541
5.09575e-06	-0.0012117680010680552
5.09600e-06	-0.0011959417261167562
5.09625e-06	-0.0011757560666402229
5.09650e-06	-0.0011530068247330733
5.09675e-06	-0.00112737161204038
5.09700e-06	-0.0011000392735357942
5.09725e-06	-0.0010702281823951197
5.09750e-06	-0.0010389594344060314
5.09775e-06	-0.0010056171543252393
5.09800e-06	-0.0009710555116467849
5.09825e-06	-0.000934969311658996
5.09850e-06	-0.0008979865795325068
5.09875e-06	-0.0008601164527160429
5.09900e-06	-0.000821724484014878
5.09925e-06	-0.0007830181033169558
5.09950e-06	-0.0007441017584442435
5.09975e-06	-0.0007052839290809101
5.10000e-06	-0.0006667955068489317
5.10025e-06	-0.000628899782927041
5.10050e-06	-0.0005918850458489953
5.10075e-06	-0.0005560317623441367
5.10100e-06	-0.0005216037156412641
5.10125e-06	-0.0004888596722186149
5.10150e-06	-0.00045805837913406785
5.10175e-06	-0.0004294585586630874
5.10200e-06	-0.0004033665198401589
5.10225e-06	-0.00038018320328591135
5.10250e-06	-0.0003602811025652951
5.10275e-06	-0.0003438483903845095
5.10300e-06	-0.0003309301626705392
5.10325e-06	-0.0003215373624636086
5.10350e-06	-0.00031568089615073737
5.10375e-06	-0.00031337168521777586
5.10400e-06	-0.00031465043518359037
5.10425e-06	-0.00031961708348974546
5.10450e-06	-0.0003283537909856645
5.10475e-06	-0.0003408272270551592
5.10500e-06	-0.00035691440029967373
5.10525e-06	-0.00037647098159629465
5.10550e-06	-0.00039935260084710157
5.10575e-06	-0.00042541491815181303
5.10600e-06	-0.0004545322382682241
5.10625e-06	-0.00048661597524828244
5.10650e-06	-0.0005223908752725376
5.10675e-06	-0.000559696339775088
5.10700e-06	-0.0005999954258017955
5.10725e-06	-0.000642054942801666
5.10750e-06	-0.0006869730505732848
5.10775e-06	-0.0007335721830477967
5.10800e-06	-0.0007801713155223086
5.10825e-06	-0.0008290701614866134
5.10850e-06	-0.0008793213784247117
5.10875e-06	-0.00092957259536281
5.10900e-06	-0.0009806258353493894
5.10925e-06	-0.001032150713518489
5.10950e-06	-0.0010836755916875883
5.10975e-06	-0.001134591305660617
5.11000e-06	-0.0011851487941497046
5.11025e-06	-0.001226234541253869
5.11050e-06	-0.001260666003877752
5.11075e-06	-0.015686149388467213
5.11100e-06	-0.021191026189478806
5.11125e-06	-0.01715389700233598
5.11150e-06	-0.013765822158419731
5.11175e-06	-0.0030263446814818643
5.11200e-06	0.0037769576836764436
5.11225e-06	0.0023208217921484014
5.11250e-06	0.000982621700765658
5.11275e-06	-0.005349362950855597
5.11300e-06	-0.009837924919195875
5.11325e-06	-0.009009613698020872
5.11350e-06	-0.005664763073775847
5.11375e-06	-0.0012793262689463414
5.11400e-06	0.0020928079468474367
5.11425e-06	0.0021213135158050962
5.11450e-06	6.000519918859955e-05
5.11475e-06	-0.003390405730289029
5.11500e-06	-0.006020328293908696
5.11525e-06	-0.005558376998528318
5.11550e-06	-0.0035053143556839743
5.11575e-06	-0.0007887760201796749
5.11600e-06	0.0013022838424513396
5.11625e-06	0.001306350372499754
5.11650e-06	7.416928305326595e-06
5.11675e-06	-0.002156743944665194
5.11700e-06	-0.0038030457547086117
5.11725e-06	-0.0035096344924851154
5.11750e-06	-0.002217397875663642
5.11775e-06	-0.0005080298404177865
5.11800e-06	0.0008106032611098201
5.11825e-06	0.0008226966390560875
5.11850e-06	1.910711810965696e-05
5.11875e-06	-0.00132616879058442
5.11900e-06	-0.002347006139921855
5.11925e-06	-0.0021530470684960725
5.11950e-06	-0.0013339421937381946
5.11975e-06	-0.0002542816430326769
5.12000e-06	0.0005797252582139883
5.12025e-06	0.000594317277208339
5.12050e-06	9.688575539369422e-05
5.12075e-06	-0.0007410335191726355
5.12100e-06	-0.0013770231827990689
5.12125e-06	-0.001253531943567301
5.12150e-06	-0.0007400886452400421
5.12175e-06	-6.521478129830629e-05
5.12200e-06	0.00045388600142272795
5.12225e-06	0.0004577472403221013
5.12250e-06	0.00013892962141304319
5.12275e-06	-0.00039503558764821553
5.12300e-06	-0.0008042758667507568
5.12325e-06	-0.0007394641561780858
5.12350e-06	-0.00043200005930380545
5.12375e-06	-2.4938614462465783e-05
5.12400e-06	0.00028313066518705505
5.12425e-06	0.00026716455644729375
5.12450e-06	4.7913967916629415e-05
5.12475e-06	-0.0003071409610258535
5.12500e-06	-0.0005849944450158344
5.12525e-06	-0.000566738005981041
5.12550e-06	-0.0003972328647671004
5.12575e-06	-0.00016599049059134262
5.12600e-06	2.7007249309757013e-06
5.12625e-06	-3.200594796302693e-05
5.12650e-06	-0.00019434926580309115
5.12675e-06	-0.0004419420376153534
5.12700e-06	-0.0006412480446188822
5.12725e-06	-0.0006550459444975722
5.12750e-06	-0.000573981306385825
5.12775e-06	-0.0004540220566502698
5.12800e-06	-0.00037291404785166985
5.12825e-06	-0.00041876779379609907
5.12850e-06	-0.0005440089492360922
5.12875e-06	-0.0007219719944687567
5.12900e-06	-0.0008689007394890335
5.12925e-06	-0.0008987384981318736
5.12950e-06	-0.0008681653510415821
5.12975e-06	-0.0008121351453181844
5.13000e-06	-0.0007792396177130469
5.13025e-06	-0.0008245581038674284
5.13050e-06	-0.0009181760158966088
5.13075e-06	-0.0010432780183394785
5.13100e-06	-0.001147290538422038
5.13125e-06	-0.0011762039013948765
5.13150e-06	-0.0011654191010838375
5.13175e-06	-0.0011367204039473516
5.13200e-06	-0.00112034659459342
5.13225e-06	-0.0011503782140896348
5.13250e-06	-0.001207613246715594
5.13275e-06	-0.0012813668339246174
5.13300e-06	-0.0013388267665105532
5.13325e-06	-0.0013463397347059424
5.13350e-06	-0.0013262602332304817
5.13375e-06	-0.0012924111164407308
5.13400e-06	-0.0012639097712022166
5.13425e-06	-0.001262278360987241
5.13450e-06	-0.0012756622446799947
5.13475e-06	-0.0012975428737612086
5.13500e-06	-0.0013075423379796695
5.13525e-06	-0.0012847578908985653
5.13550e-06	-0.0012433700825750771
5.13575e-06	-0.0011922144169195742
5.13600e-06	-0.0011434416761836167
5.13625e-06	-0.001110708113546946
5.13650e-06	-0.0010867624369054697
5.13675e-06	-0.0010676960714221056
5.13700e-06	-0.0010409200710661565
5.13725e-06	-0.0009935178110136178
5.13750e-06	-0.0009345488190452301
5.13775e-06	-0.0008697240068372286
5.13800e-06	-0.0008068303854853996
5.13825e-06	-0.0007545969625739223
5.13850e-06	-0.0007086562921247664
5.13875e-06	-0.0006667351302954531
5.13900e-06	-0.0006211233102546708
5.13925e-06	-0.0005639060228180862
5.13950e-06	-0.0005009344580606986
5.13975e-06	-0.0004359617834679479
5.14000e-06	-0.00037404120256257336
5.14025e-06	-0.0003208155962166941
5.14050e-06	-0.00027372399026168376
5.14075e-06	-0.00023151749370622736
5.14100e-06	-0.00018954167883343442
5.14125e-06	-0.00014301445514621337
5.14150e-06	-9.577681785425134e-05
5.14175e-06	-5.033970632281459e-05
5.14200e-06	-9.739481124436665e-06
5.14225e-06	2.344426289095277e-05
5.14250e-06	5.2245648320904705e-05
5.14275e-06	7.826898512598918e-05
5.14300e-06	0.00010456412725582492
5.14325e-06	0.00013410318359352114
5.14350e-06	0.0001644567593106177
5.14375e-06	0.0001940287766966628
5.14400e-06	0.00022089419368573332
5.14425e-06	0.00024341427073509812
