Time(s)	Current(A)
1.75000e-06	0.008712759850940045
1.75025e-06	0.008722085157270453
1.75050e-06	0.008731410463600861
1.75075e-06	0.008740735769931276
1.75100e-06	0.008750061076261684
1.75125e-06	0.008759386382592101
1.75150e-06	0.00876871168892251
1.75175e-06	0.008778036995252925
1.75200e-06	0.008784545660973388
1.75225e-06	0.008790983814104057
1.75250e-06	0.00879742196723473
1.75275e-06	0.008803860120365397
1.75300e-06	0.00881029827349607
1.75325e-06	0.008816736426626738
1.75350e-06	0.008823174579757407
1.75375e-06	0.008829612732888079
1.75400e-06	0.008836050886018746
1.75425e-06	0.00884248903914942
1.75450e-06	0.008848927192280087
1.75475e-06	0.008855365345410756
1.75500e-06	0.008861803498541428
1.75525e-06	0.008868241651672095
1.75550e-06	0.00887467980480277
1.75575e-06	0.008881117957933437
1.75600e-06	0.00888755611106411
1.75625e-06	0.008887500325170626
1.75650e-06	0.008880283618298639
1.75675e-06	0.008873066911426647
1.75700e-06	0.008865850204554661
1.75725e-06	0.008858633497682669
1.75750e-06	0.008851416790810683
1.75775e-06	0.008844200083938696
1.75800e-06	0.008836983377066704
1.75825e-06	0.008829766670194718
1.75850e-06	0.008822549963322726
1.75875e-06	0.00881533325645074
1.75900e-06	0.008808116549578754
1.75925e-06	0.008800899842706761
1.75950e-06	0.008776412613527549
1.75975e-06	0.008751493029134026
1.76000e-06	0.008726573444740524
1.76025e-06	0.008701653860347
1.76050e-06	0.008676734275953498
1.76075e-06	0.008651814691559996
1.76100e-06	0.008626895107166473
1.76125e-06	0.00860197552277297
1.76150e-06	0.008577055938379447
1.76175e-06	0.008552136353985945
1.76200e-06	0.008527216769592443
1.76225e-06	0.00850229718519892
1.76250e-06	0.00847494011580613
1.76275e-06	0.008444895211279562
1.76300e-06	0.008414850306753019
1.76325e-06	0.008384805402226475
1.76350e-06	0.008354760497699905
1.76375e-06	0.008324715593173361
1.76400e-06	0.008294670688646793
1.76425e-06	0.008264625784120249
1.76450e-06	0.008234580879593705
1.76475e-06	0.008211460614482724
1.76500e-06	0.008188513702783094
1.76525e-06	0.008165566791083443
1.76550e-06	0.008142619879383813
1.76575e-06	0.008119672967684163
1.76600e-06	0.008096726055984532
1.76625e-06	0.008073779144284901
1.76650e-06	0.008050832232585252
1.76675e-06	0.008029757165879904
1.76700e-06	0.008010746198334915
1.76725e-06	0.007991735230789944
1.76750e-06	0.007972724263244973
1.76775e-06	0.007953713295699985
1.76800e-06	0.007934702328155014
1.76825e-06	0.007915691360610027
1.76850e-06	0.007896680393065056
1.76875e-06	0.007877669425520083
1.76900e-06	0.007858658457975096
1.76925e-06	0.007839647490430125
1.76950e-06	0.007820636522885137
1.76975e-06	0.007801625555340166
1.77000e-06	0.007782614587795177
1.77025e-06	0.007763603620250206
1.77050e-06	0.007744592652705235
1.77075e-06	0.007725403721304537
1.77100e-06	0.007706210334705597
1.77125e-06	0.007687016948106641
1.77150e-06	0.0076678235615077
1.77175e-06	0.00764863017490876
1.77200e-06	0.007629436788309804
1.77225e-06	0.007610243401710863
1.77250e-06	0.007591050015111907
1.77275e-06	0.007571856628512967
1.77300e-06	0.007552663241914026
1.77325e-06	0.00753346985531507
1.77350e-06	0.007514276468716129
1.77375e-06	0.007495083082117173
1.77400e-06	0.007475889695518233
1.77425e-06	0.007456696308919276
1.77450e-06	0.0074409347182518995
1.77475e-06	0.007428957397714929
1.77500e-06	0.007416980077177947
1.77525e-06	0.007405002756640976
1.77550e-06	0.007393025436103995
1.77575e-06	0.007381048115567024
1.77600e-06	0.007369070795030052
1.77625e-06	0.007357093474493072
1.77650e-06	0.0073451161539561
1.77675e-06	0.007333138833419119
1.77700e-06	0.00733141589739788
1.77725e-06	0.007341000557108407
1.77750e-06	0.007350585216818941
1.77775e-06	0.007360169876529468
1.77800e-06	0.007369754536240002
1.77825e-06	0.007379339195950528
1.77850e-06	0.007388923855661063
1.77875e-06	0.007398508515371589
1.77900e-06	0.007408093175082116
1.77925e-06	0.00741767783479265
1.77950e-06	0.007438773674491633
1.77975e-06	0.007472562988821286
1.78000e-06	0.00750635230315091
1.78025e-06	0.007540141617480534
1.78050e-06	0.007573930931810187
1.78075e-06	0.007607720246139811
1.78100e-06	0.007641509560469464
1.78125e-06	0.007675298874799088
1.78150e-06	0.007709088189128712
1.78175e-06	0.007742877503458365
1.78200e-06	0.007776666817787989
1.78225e-06	0.00781412766176243
1.78250e-06	0.007855637132241486
1.78275e-06	0.007897146602720576
1.78300e-06	0.00793865607319963
1.78325e-06	0.007980165543678685
1.78350e-06	0.008021675014157775
1.78375e-06	0.00806318448463683
1.78400e-06	0.00810469395511592
1.78425e-06	0.008146203425594974
1.78450e-06	0.008187712896074029
1.78475e-06	0.008229222366553119
1.78500e-06	0.00826748019148036
1.78525e-06	0.00830215239961075
1.78550e-06	0.00832808802154372
1.78575e-06	0.00834438973666936
1.78600e-06	0.008360691451795015
1.78625e-06	0.008376993166920655
1.78650e-06	0.008393294882046308
1.78675e-06	0.008409596597171949
1.78700e-06	0.008425898312297604
1.78725e-06	0.008442200027423243
1.78750e-06	0.008458501742548884
1.78775e-06	0.008474803457674538
1.78800e-06	0.008491105172800177
1.78825e-06	0.008507406887925832
1.78850e-06	0.008509367582918528
1.78875e-06	0.008495514314841551
1.78900e-06	0.008481661046764564
1.78925e-06	0.008467807778687587
1.78950e-06	0.008453954510610599
1.78975e-06	0.008440101242533624
1.79000e-06	0.008426247974456647
1.79025e-06	0.00841239470637966
1.79050e-06	0.008398541438302683
1.79075e-06	0.008384688170225696
1.79100e-06	0.00837083490214872
1.79125e-06	0.00835698163407173
1.79150e-06	0.008335772837051428
1.79175e-06	0.008306453036630572
1.79200e-06	0.008277133236209691
1.79225e-06	0.008247813435788837
1.79250e-06	0.008218493635367956
1.79275e-06	0.0081891738349471
1.79300e-06	0.008159854034526246
1.79325e-06	0.008130534234105365
1.79350e-06	0.008101214433684509
1.79375e-06	0.008071894633263629
1.79400e-06	0.008044827932326594
1.79425e-06	0.008019270489793139
1.79450e-06	0.00799371304725966
1.79475e-06	0.007968155604726204
1.79500e-06	0.007942598162192725
1.79525e-06	0.00791704071965927
1.79550e-06	0.007891483277125792
1.79575e-06	0.007865925834592336
1.79600e-06	0.007840368392058879
1.79625e-06	0.007814810949525401
1.79650e-06	0.007657097955222557
1.79675e-06	-0.00020144261671939346
1.79700e-06	-0.006661908415656336
1.79725e-06	-0.004918235930732623
1.79750e-06	-0.002789887213464832
1.79775e-06	0.0028483376385529747
1.79800e-06	0.00859901573675875
1.79825e-06	0.00857473549167417
1.79850e-06	0.007801563753046894
1.79875e-06	0.003807693726512732
1.79900e-06	-0.0012744403731148185
1.79925e-06	-6.141649154343091e-05
1.79950e-06	0.0016234947024863422
1.79975e-06	0.004631541009452315
1.80000e-06	0.0087666381700516
1.80025e-06	0.010543384538637374
1.80050e-06	0.009553269341248958
1.80075e-06	0.007443716000686501
1.80100e-06	0.004289596095342215
1.80125e-06	0.00270623467440458
1.80150e-06	0.0035595948561375212
1.80175e-06	0.005543551236565431
1.80200e-06	0.007972986576323218
1.80225e-06	0.009396925828905407
1.80250e-06	0.009197653432826865
1.80275e-06	0.007861694927193956
1.80300e-06	0.00587298271655875
1.80325e-06	0.004869555726088966
1.80350e-06	0.005393580494384883
1.80375e-06	0.006626662629857321
1.80400e-06	0.008139481189513265
1.80425e-06	0.009023058235047789
1.80450e-06	0.008890444439242093
1.80475e-06	0.00804639747756653
1.80500e-06	0.006794033748737063
1.80525e-06	0.006159349002886432
1.80550e-06	0.006481831582869782
1.80575e-06	0.007248749681252108
1.80600e-06	0.008191305659844127
1.80625e-06	0.008740738241903166
1.80650e-06	0.008655454062063177
1.80675e-06	0.008126657814379821
1.80700e-06	0.007344149725204764
1.80725e-06	0.006950482277523137
1.80750e-06	0.007158140555461369
1.80775e-06	0.007645789774032382
1.80800e-06	0.00824491860541861
1.80825e-06	0.008599144534141333
1.80850e-06	0.008557046720976253
1.80875e-06	0.008238311549957725
1.80900e-06	0.007761737407564622
1.80925e-06	0.007529700508255629
1.80950e-06	0.007675161675403324
1.80975e-06	0.007996700765431453
1.81000e-06	0.008388640290056659
1.81025e-06	0.00862763763955443
1.81050e-06	0.00861875079214784
1.81075e-06	0.008436862474764387
1.81100e-06	0.00815629076399323
1.81125e-06	0.008028973957669343
1.81150e-06	0.008138072018656801
1.81175e-06	0.008357291320923057
1.81200e-06	0.008620321739293937
1.81225e-06	0.008787156918364106
1.81250e-06	0.008798229676995848
1.81275e-06	0.008700350703463105
1.81300e-06	0.008539973660767596
1.81325e-06	0.00847480375789142
1.81350e-06	0.008556815083669357
1.81375e-06	0.00870678043896113
1.81400e-06	0.008883052989897128
1.81425e-06	0.008997826830198515
1.81450e-06	0.00901369076295587
1.81475e-06	0.008959868115756818
1.81500e-06	0.008865354802110823
1.81525e-06	0.008828831347395661
1.81550e-06	0.00888274038854014
1.81575e-06	0.008977349958338713
1.81600e-06	0.009086554345572444
1.81625e-06	0.009155568200063122
1.81650e-06	0.009161313732312184
1.81675e-06	0.00912230498898408
1.81700e-06	0.009056781369892094
1.81725e-06	0.009026616137639259
1.81750e-06	0.009052188014040063
1.81775e-06	0.00910240208646676
1.81800e-06	0.00916096531345274
1.81825e-06	0.00919362296851608
1.81850e-06	0.009185980951077612
1.81875e-06	0.009149703110886965
1.81900e-06	0.009096276294818264
1.81925e-06	0.00906451791524887
1.81950e-06	0.009067253187635706
1.81975e-06	0.009085061906005994
1.82000e-06	0.009107798631028119
1.82025e-06	0.009114068730282057
1.82050e-06	0.009094918146163398
1.82075e-06	0.009058677201859561
1.82100e-06	0.009014503640822975
1.82125e-06	0.00897530416724087
1.82150e-06	0.00896256472583212
1.82175e-06	0.00895866152465317
1.82200e-06	0.00895585079312298
1.82225e-06	0.008949545363919242
1.82250e-06	0.008923976264212381
1.82275e-06	0.008888118554961043
1.82300e-06	0.00884784909815721
1.82325e-06	0.00881082806001124
1.82350e-06	0.008791142513610033
1.82375e-06	0.008777669790726979
1.82400e-06	0.008765742342513878
1.82425e-06	0.008751298527929394
1.82450e-06	0.008724345586958735
1.82475e-06	0.008696550789757874
1.82500e-06	0.008664571035190728
1.82525e-06	0.008635345035634586
1.82550e-06	0.00861980824678355
1.82575e-06	0.008605198786550692
1.82600e-06	0.008595199176067037
1.82625e-06	0.008583865931179277
1.82650e-06	0.008565903047021366
1.82675e-06	0.008548119296143762
1.82700e-06	0.008531226035962812
1.82725e-06	0.008514332775781846
1.82750e-06	0.00849933368562002
1.82775e-06	0.008493750717226054
1.82800e-06	0.008488167748832093
1.82825e-06	0.008481887691765319
1.82850e-06	0.008472142332344534
1.82875e-06	0.008462396972923758
1.82900e-06	0.008453772424780466
1.82925e-06	0.008450719549380876
1.82950e-06	0.008447666673981287
1.82975e-06	0.008444613798581694
1.83000e-06	0.008441560923182104
1.83025e-06	0.008439577256195473
1.83050e-06	0.008438126255624222
1.83075e-06	0.00843667525505297
1.83100e-06	0.00843522425448172
1.83125e-06	0.008434523566004597
1.83150e-06	0.008437552759201578
1.83175e-06	0.008440581952398555
1.83200e-06	0.008443611145595536
1.83225e-06	0.008446640338792513
1.83250e-06	0.00844966953198949
1.83275e-06	0.008452698725186471
1.83300e-06	0.008455727918383449
1.83325e-06	0.00845875711158043
1.83350e-06	0.008461786304777407
1.83375e-06	0.008464815497974384
1.83400e-06	0.00846744613574301
1.83425e-06	0.008469878218123578
1.83450e-06	0.008472310300504148
1.83475e-06	0.008474742382884716
1.83500e-06	0.008477174465265283
1.83525e-06	0.008479606547645851
1.83550e-06	0.008482038630026419
1.83575e-06	0.008484470712406988
1.83600e-06	0.008486902794787556
1.83625e-06	0.008489334877168126
1.83650e-06	0.008492559001569039
1.83675e-06	0.00849972045157054
1.83700e-06	0.008506881901572047
1.83725e-06	0.008514043351573547
1.83750e-06	0.008521204801575056
1.83775e-06	0.008528366251576555
1.83800e-06	0.008535527701578057
1.83825e-06	0.008542689151579564
1.83850e-06	0.008549850601581066
1.83875e-06	0.008557012051582573
1.83900e-06	0.008564173501584074
1.83925e-06	0.008571334951585581
1.83950e-06	0.008578496401587081
1.83975e-06	0.008585657851588583
1.84000e-06	0.00859281930159009
1.84025e-06	0.008599980751591591
1.84050e-06	0.00861222571409044
1.84075e-06	0.00862700321968051
1.84100e-06	0.00864178072527058
1.84125e-06	0.008656558230860662
1.84150e-06	0.008671335736450732
1.84175e-06	0.008686113242040815
1.84200e-06	0.008700890747630885
1.84225e-06	0.008715668253220956
1.84250e-06	0.008730445758811038
1.84275e-06	0.008745223264401109
1.84300e-06	0.008760000769991191
1.84325e-06	0.008774778275581261
1.84350e-06	0.008789555781171332
1.84375e-06	0.008804333286761414
1.84400e-06	0.008819110792351483
1.84425e-06	0.008832466392521589
1.84450e-06	0.008838753548761388
1.84475e-06	0.008845040705001193
1.84500e-06	0.008851327861240993
1.84525e-06	0.008857615017480794
1.84550e-06	0.008863902173720599
1.84575e-06	0.008870189329960398
1.84600e-06	0.008876476486200203
1.84625e-06	0.008882763642440002
1.84650e-06	0.008889050798679804
1.84675e-06	0.008895337954919608
1.84700e-06	0.008901625111159408
1.84725e-06	0.008907912267399213
1.84750e-06	0.008914199423639012
1.84775e-06	0.008920486579878813
1.84800e-06	0.008926773736118618
1.84825e-06	0.008933060892358418
1.84850e-06	0.008939348048598222
1.84875e-06	0.008945635204838022
1.84900e-06	0.008951922361077828
1.84925e-06	0.008958209517317628
1.84950e-06	0.008964496673557427
1.84975e-06	0.008970783829797232
1.85000e-06	0.008975614361314901
1.85025e-06	0.00897320385553808
1.85050e-06	0.00897079334976126
1.85075e-06	0.00896838284398444
1.85100e-06	0.008965972338207617
1.85125e-06	0.008963561832430798
1.85150e-06	0.008961151326653975
1.85175e-06	0.008958740820877156
1.85200e-06	0.008956330315100337
1.85225e-06	0.008953919809323514
1.85250e-06	0.008951509303546695
1.85275e-06	0.008949098797769872
1.85300e-06	0.008946688291993053
1.85325e-06	0.00894427778621623
1.85350e-06	0.00894186728043941
1.85375e-06	0.00893945677466259
1.85400e-06	0.008937046268885768
1.85425e-06	0.008934635763108947
1.85450e-06	0.008932225257332126
1.85475e-06	0.008929814751555305
1.85500e-06	0.008927404245778486
1.85525e-06	0.008924993740001663
1.85550e-06	0.008922583234224844
1.85575e-06	0.008918586330907788
1.85600e-06	0.00890670327573741
1.85625e-06	0.008894820220567033
1.85650e-06	0.008882937165396647
1.85675e-06	0.008871054110226269
1.85700e-06	0.008859171055055882
1.85725e-06	0.008847287999885505
1.85750e-06	0.008835404944715118
1.85775e-06	0.00882352188954474
1.85800e-06	0.008807758592454867
1.85825e-06	0.008772706197753461
1.85850e-06	0.008737653803052086
1.85875e-06	0.008702601408350682
1.85900e-06	0.008667549013649307
1.85925e-06	0.008632496618947933
1.85950e-06	0.008597444224246529
1.85975e-06	0.008562391829545152
1.86000e-06	0.008527339434843748
1.86025e-06	0.008488933687316999
1.86050e-06	0.008433858064221963
1.86075e-06	0.008378782441126881
1.86100e-06	0.008323706818031846
1.86125e-06	0.008268631194936763
1.86150e-06	0.008213555571841728
1.86175e-06	0.008158479948746645
1.86200e-06	0.00810340432565161
1.86225e-06	0.008048328702556574
1.86250e-06	0.007993253079461492
1.86275e-06	0.007938001029191828
1.86300e-06	0.007881871940566469
1.86325e-06	0.007825742851941157
1.86350e-06	0.007769613763315844
1.86375e-06	0.0077134846746904845
1.86400e-06	0.007657355586065173
1.86425e-06	0.007601226497439813
1.86450e-06	0.007545097408814502
1.86475e-06	0.00748896832018919
1.86500e-06	0.007432839231563831
1.86525e-06	0.0073813809967683
1.86550e-06	0.007353142075952217
1.86575e-06	0.007324903155136157
1.86600e-06	0.007296664234320074
1.86625e-06	0.0072684253135040155
1.86650e-06	0.007240186392687957
1.86675e-06	0.007211947471871874
1.86700e-06	0.007183708551055815
1.86725e-06	0.007155469630239732
1.86750e-06	0.0071272307094236735
1.86775e-06	0.007098991788607614
1.86800e-06	0.007070752867791531
1.86825e-06	0.007042513946975472
1.86850e-06	0.007014275026159389
1.86875e-06	0.006986036105343331
1.86900e-06	0.006976655358630149
1.86925e-06	0.006976669521156198
1.86950e-06	0.006976683683682246
1.86975e-06	0.006976697846208294
1.87000e-06	0.006976712008734343
1.87025e-06	0.006976726171260391
1.87050e-06	0.00697674033378644
1.87075e-06	0.0069767544963124884
1.87100e-06	0.006976768658838537
1.87125e-06	0.006976782821364585
1.87150e-06	0.006976796983890633
1.87175e-06	0.006976811146416682
1.87200e-06	0.006976825308942731
1.87225e-06	0.006976839471468779
1.87250e-06	0.006978381986905053
1.87275e-06	0.006987522108129194
1.87300e-06	0.006996662229353328
1.87325e-06	0.007005802350577461
1.87350e-06	0.007014942471801603
1.87375e-06	0.007024082593025736
1.87400e-06	0.0070332227142498776
1.87425e-06	0.007042362835474011
1.87450e-06	0.007051502956698152
1.87475e-06	0.007060643077922286
1.87500e-06	0.0070697831991464195
1.87525e-06	0.007078923320370561
1.87550e-06	0.007086210489360556
1.87575e-06	0.007092574540451196
1.87600e-06	0.007098938591541831
1.87625e-06	0.0071053026426324654
1.87650e-06	0.007111666693723105
1.87675e-06	0.00711803074481374
1.87700e-06	0.00712439479590438
1.87725e-06	0.007130758846995015
1.87750e-06	0.007137122898085649
1.87775e-06	0.007143486949176289
1.87800e-06	0.007149851000266924
1.87825e-06	0.007156174800238246
1.87850e-06	0.0071622985075902226
1.87875e-06	0.0071684222149422
1.87900e-06	0.007174545922294183
1.87925e-06	0.00718066962964616
1.87950e-06	0.007186793336998142
1.87975e-06	0.00719291704435012
1.88000e-06	0.007199040751702102
1.88025e-06	0.0072051644590540795
1.88050e-06	0.007211288166406057
1.88075e-06	0.007217411873758039
1.88100e-06	0.0072235355811100166
1.88125e-06	0.0072296592884619985
1.88150e-06	0.007235782995813976
1.88175e-06	0.007241906703165954
1.88200e-06	0.0072480304105179355
1.88225e-06	0.007254154117869913
1.88250e-06	0.007260277825221896
1.88275e-06	0.007266401532573873
1.88300e-06	0.00727252523992585
1.88325e-06	0.007278648947277833
1.88350e-06	0.00728477265462981
1.88375e-06	0.0072908963619817925
1.88400e-06	0.007297020069333769
1.88425e-06	0.007303143776685752
1.88450e-06	0.0073092674840377295
1.88475e-06	0.007315391191389706
1.88500e-06	0.007321514898741689
1.88525e-06	0.007327638606093667
1.88550e-06	0.007330518186364719
1.88575e-06	0.007331781582623658
1.88600e-06	0.007333044978882599
1.88625e-06	0.007334308375141539
1.88650e-06	0.007335571771400479
1.88675e-06	0.00733683516765942
1.88700e-06	0.007338098563918359
1.88725e-06	0.0073393619601773
1.88750e-06	0.007340625356436241
1.88775e-06	0.00734188875269518
1.88800e-06	0.007343152148954121
1.88825e-06	0.0073444155452130604
1.88850e-06	0.0073456789414720015
1.88875e-06	0.007346942337730942
1.88900e-06	0.007348205733989881
1.88925e-06	0.007349469130248822
1.88950e-06	0.007350732526507762
1.88975e-06	0.0073519959227667025
1.89000e-06	0.007353259319025643
1.89025e-06	0.007354522715284582
1.89050e-06	0.007355786111543523
1.89075e-06	0.007357049507802463
1.89100e-06	0.0073583129040614035
1.89125e-06	0.007359576300320344
1.89150e-06	0.007360839696579283
1.89175e-06	0.007362103092838224
1.89200e-06	0.007363366489097164
1.89225e-06	0.007364629885356105
1.89250e-06	0.007365510030538869
1.89275e-06	0.007364484993630182
1.89300e-06	0.007363459956721496
1.89325e-06	0.007362434919812809
1.89350e-06	0.007361409882904122
1.89375e-06	0.007360384845995436
1.89400e-06	0.007359359809086749
1.89425e-06	0.007358334772178063
1.89450e-06	0.007357309735269377
1.89475e-06	0.00735628469836069
1.89500e-06	0.007355259661452004
1.89525e-06	0.007354234624543317
1.89550e-06	0.0073532095876346305
1.89575e-06	0.007352184550725944
1.89600e-06	0.007351159513817257
1.89625e-06	0.007350134476908571
1.89650e-06	0.007350714518449145
1.89675e-06	0.0073592735766366746
1.89700e-06	0.007367832634824211
1.89725e-06	0.00737639169301174
1.89750e-06	0.00738495075119927
1.89775e-06	0.007393509809386807
1.89800e-06	0.0074020688675743365
1.89825e-06	0.007410627925761873
1.89850e-06	0.007419186983949402
1.89875e-06	0.007427746042136932
1.89900e-06	0.007436305100324468
1.89925e-06	0.007444864158511998
1.89950e-06	0.007453423216699535
1.89975e-06	0.007461982274887064
1.90000e-06	0.007470541333074594
1.90025e-06	0.00747910039126213
1.90050e-06	0.0074896105298071156
1.90075e-06	0.00750981969749196
1.90100e-06	0.007530028865176788
1.90125e-06	0.007550238032861633
1.90150e-06	0.00757044720054646
