Time(s)	Current(A)
4.00000e-06	-0.003120845637232977
4.00025e-06	-0.0031175859003532377
4.00050e-06	-0.003112044484468147
4.00075e-06	-0.0031065030685830373
4.00100e-06	-0.0031009616526979466
4.00125e-06	-0.0030954202368128556
4.00150e-06	-0.0030898788209277462
4.00175e-06	-0.003084337405042655
4.00200e-06	-0.0030787959891575645
4.00225e-06	-0.0030732545732724548
4.00250e-06	-0.003067713157387364
4.00275e-06	-0.003059941433682066
4.00300e-06	-0.003051705855615008
4.00325e-06	-0.0030434702775479785
4.00350e-06	-0.003035234699480949
4.00375e-06	-0.0030269991214138914
4.00400e-06	-0.0030187635433468613
4.00425e-06	-0.003012443795433444
4.00450e-06	-0.003010052194881931
4.00475e-06	-0.003007660594330418
4.00500e-06	-0.003005268993778897
4.00525e-06	-0.003002877393227384
4.00550e-06	-0.0030004857926758713
4.00575e-06	-0.00299809419212435
4.00600e-06	-0.003016748916950478
4.00625e-06	-0.0030397808087915053
4.00650e-06	-0.0030628127006326108
4.00675e-06	-0.003085844592473638
4.00700e-06	-0.0031088764843146656
4.00725e-06	-0.003131908376155771
4.00750e-06	-0.0031549402679967985
4.00775e-06	-0.0031779721598378264
4.00800e-06	-0.003201004051678932
4.00825e-06	-0.003251571158926908
4.00850e-06	-0.0033078649778198028
4.00875e-06	-0.003364158796712507
4.00900e-06	-0.003420452615605211
4.00925e-06	-0.003476746434498106
4.00950e-06	-0.00353304025339081
4.00975e-06	-0.0035893340722835143
4.01000e-06	-0.003645627891176409
4.01025e-06	-0.0037019217100691133
4.01050e-06	-0.003774622712146692
4.01075e-06	-0.0038507360429681633
4.01100e-06	-0.003926849373789377
4.01125e-06	-0.00400296270461059
4.01150e-06	-0.004079076035432062
4.01175e-06	-0.004155189366253275
4.01200e-06	-0.0042313026970744886
4.01225e-06	-0.004307298664686533
4.01250e-06	-0.00438305399511003
4.01275e-06	-0.004458809325533783
4.01300e-06	-0.00453456465595728
4.01325e-06	-0.004610319986380777
4.01350e-06	-0.004686075316804531
4.01375e-06	-0.004761830647228028
4.01400e-06	-0.004837585977651525
4.01425e-06	-0.004903407402972475
4.01450e-06	-0.004967162797242498
4.01475e-06	-0.005030918191512521
4.01500e-06	-0.005072885195747918
4.01525e-06	-0.005110320700045342
4.01550e-06	-0.005147756204342766
4.01575e-06	-0.005185191708640317
4.01600e-06	-0.005222627212937741
4.01625e-06	-0.005260062717235165
4.01650e-06	-0.005297498221532715
4.01675e-06	-0.0053197584145286535
4.01700e-06	-0.00531090370993004
4.01725e-06	-0.005302049005331456
4.01750e-06	-0.005293194300732872
4.01775e-06	-0.005284339596134258
4.01800e-06	-0.005275484891535675
4.01825e-06	-0.005266630186937091
4.01850e-06	-0.0052577754823384774
4.01875e-06	-0.005214167259569542
4.01900e-06	-0.0051633310789223385
4.01925e-06	-0.0051124948982749635
4.01950e-06	-0.005061658717627761
4.01975e-06	-0.005010822536980558
4.02000e-06	-0.004959986356333183
4.02025e-06	-0.004909150175685981
4.02050e-06	-0.004850060568798541
4.02075e-06	-0.004774048441696844
4.02100e-06	-0.004698036314595406
4.02125e-06	-0.004622024187493968
4.02150e-06	-0.004546012060392271
4.02175e-06	-0.004469999933290833
4.02200e-06	-0.004393987806189137
4.02225e-06	-0.004317975679087698
4.02250e-06	-0.004240005740411682
4.02275e-06	-0.004161628620525038
4.02300e-06	-0.00408325150063866
4.02325e-06	-0.0040048743807522815
4.02350e-06	-0.003926497260865637
4.02375e-06	-0.003848120140979259
4.02400e-06	-0.003784670670185042
4.02425e-06	-0.003724325817988164
4.02450e-06	-0.0036639809657914905
4.02475e-06	-0.0036036361135948166
4.02500e-06	-0.0035432912613979385
4.02525e-06	-0.003482946409201265
4.02550e-06	-0.003442592048864261
4.02575e-06	-0.0034063952656791336
4.02600e-06	-0.0033701984824941284
4.02625e-06	-0.0033489785624082444
4.02650e-06	-0.00333087349633729
4.02675e-06	-0.0033127684302663362
4.02700e-06	-0.0033104556635541447
4.02725e-06	-0.0033114273434403266
4.02750e-06	-0.003312399023326509
4.02775e-06	-0.0033285067729817027
4.02800e-06	-0.003347762488093594
4.02825e-06	-0.0033670182032054853
4.02850e-06	-0.0034002285949301814
4.02875e-06	-0.003436341248642613
4.02900e-06	-0.0034724539023550448
4.02925e-06	-0.0035277779255843173
4.02950e-06	-0.0035870974858673143
4.02975e-06	-0.003646417046150311
4.03000e-06	-0.0037057366064335087
4.03025e-06	-0.0037650561667165053
4.03050e-06	-0.003824375726999703
4.03075e-06	-0.0038836952872826997
4.03100e-06	-0.003958704166477858
4.03125e-06	-0.0040369760746315035
4.03150e-06	-0.0041152479827848846
4.03175e-06	-0.004193519890938265
4.03200e-06	-0.004271791799091911
4.03225e-06	-0.004350063707245291
4.03250e-06	-0.004428335615398672
4.03275e-06	-0.0045050071651859805
4.03300e-06	-0.004581345876070217
4.03325e-06	-0.0046576845869544525
4.03350e-06	-0.0047340232978389475
4.03375e-06	-0.004810362008723183
4.03400e-06	-0.004886700719607419
4.03425e-06	-0.004963039430491914
4.03450e-06	-0.0050306341141218396
4.03475e-06	-0.0050803003673510014
4.03500e-06	-0.005129966620579995
4.03525e-06	-0.005179632873808989
4.03550e-06	-0.00522929912703815
4.03575e-06	-0.005278965380267143
4.03600e-06	-0.005328631633496137
4.03625e-06	-0.005378297886725299
4.03650e-06	-0.005393035749168377
4.03675e-06	-0.005400509284127579
4.03700e-06	-0.005407982819086807
4.03725e-06	-0.0054154563540460094
4.03750e-06	-0.005422929889005211
4.03775e-06	-0.005430403423964439
4.03800e-06	-0.005437876958923642
4.03825e-06	-0.005445350493882845
4.03850e-06	-0.00543971984137813
4.03875e-06	-0.0054072208470837884
4.03900e-06	-0.005374721852789337
4.03925e-06	-0.005342222858494996
4.03950e-06	-0.005309723864200654
4.03975e-06	-0.005277224869906203
4.04000e-06	-0.005244725875611862
4.04025e-06	-0.00521222688131752
4.04050e-06	-0.005179727887023069
4.04075e-06	-0.005128865820242677
4.04100e-06	-0.005074184643302089
4.04125e-06	-0.0050195034663613166
4.04150e-06	-0.0049648222894207285
4.04175e-06	-0.0049101411124801405
4.04200e-06	-0.004855459935539368
4.04225e-06	-0.0048007787585987805
4.04250e-06	-0.004746039754936351
4.04275e-06	-0.0046911821854999204
4.04300e-06	-0.004636324616063676
4.04325e-06	-0.004581467046627245
4.04350e-06	-0.004526609477191001
4.04375e-06	-0.004471751907754756
4.04400e-06	-0.004416894338318326
4.04425e-06	-0.004362036768882081
4.04450e-06	-0.00432859383363002
4.04475e-06	-0.004299604665417234
4.04500e-06	-0.004270615497204545
4.04525e-06	-0.004241626328991856
4.04550e-06	-0.00421263716077907
4.04575e-06	-0.004183647992566382
4.04600e-06	-0.004154658824353693
4.04625e-06	-0.004125669656140907
4.04650e-06	-0.0041117271633060734
4.04675e-06	-0.004128635817701349
4.04700e-06	-0.004145544472096681
4.04725e-06	-0.004162453126491956
4.04750e-06	-0.004179361780887288
4.04775e-06	-0.004196270435282564
4.04800e-06	-0.004213179089677839
4.04825e-06	-0.0042300877440731716
4.04850e-06	-0.004246996398468446
4.04875e-06	-0.004298227222288227
4.04900e-06	-0.004356596293045605
4.04925e-06	-0.0044149653638027855
4.04950e-06	-0.004473334434559966
4.04975e-06	-0.004531703505317344
4.05000e-06	-0.004590072576074525
4.05025e-06	-0.004648441646831705
4.05050e-06	-0.004706810717589083
4.05075e-06	-0.004783888499473162
4.05100e-06	-0.004864857276656605
4.05125e-06	-0.004945826053840322
4.05150e-06	-0.005026794831023766
4.05175e-06	-0.005107763608207483
4.05200e-06	-0.005188732385390926
4.05225e-06	-0.00526970116257437
4.05250e-06	-0.005350669939758088
4.05275e-06	-0.005429195492069049
4.05300e-06	-0.005507212908013536
4.05325e-06	-0.005585230323958287
4.05350e-06	-0.005663247739902774
4.05375e-06	-0.005741265155847261
4.05400e-06	-0.005819282571792012
4.05425e-06	-0.0058972999877364984
4.05450e-06	-0.005975317403680985
4.05475e-06	-0.006028277164312964
4.05500e-06	-0.00607602549063689
4.05525e-06	-0.006123773816960817
4.05550e-06	-0.006171522143284905
4.05575e-06	-0.006219270469608832
4.05600e-06	-0.0062670187959329195
4.05625e-06	-0.006314767122256846
4.05650e-06	-0.006362515448580772
4.05675e-06	-0.006374503595214526
4.05700e-06	-0.006379054420799864
4.05725e-06	-0.006383605246385202
4.05750e-06	-0.006388156071970556
4.05775e-06	-0.006392706897555894
4.05800e-06	-0.006397257723141232
4.05825e-06	-0.006401808548726586
4.05850e-06	-0.006406359374311924
4.05875e-06	-0.006398601466599639
4.05900e-06	-0.006365606186940291
4.05925e-06	-0.006332610907281055
4.05950e-06	-0.006299615627621818
4.05975e-06	-0.006266620347962469
4.06000e-06	-0.0062336250683032324
4.06025e-06	-0.006200629788643885
4.06050e-06	-0.006167634508984648
4.06075e-06	-0.006134639229325411
4.06100e-06	-0.006085519773218864
4.06125e-06	-0.006033046847473913
4.06150e-06	-0.0059805739217289626
4.06175e-06	-0.005928100995983834
4.06200e-06	-0.005875628070238883
4.06225e-06	-0.0058231551444939324
4.06250e-06	-0.005770682218748804
4.06275e-06	-0.005718209293003853
4.06300e-06	-0.0056691033184806915
4.06325e-06	-0.005620697594834244
4.06350e-06	-0.005572291871187961
4.06375e-06	-0.005523886147541678
4.06400e-06	-0.005475480423895231
4.06425e-06	-0.005427074700248948
4.06450e-06	-0.005378668976602501
4.06475e-06	-0.005330263252956218
4.06500e-06	-0.005305909786795376
4.06525e-06	-0.005286558654581244
4.06550e-06	-0.005267207522367177
4.06575e-06	-0.005247856390153111
4.06600e-06	-0.005228505257938978
4.06625e-06	-0.005209154125724911
4.06650e-06	-0.005189802993510844
4.06675e-06	-0.005170451861296712
4.06700e-06	-0.005151100729082645
4.06725e-06	-0.0051317495968685786
4.06750e-06	-0.005112398464654447
4.06775e-06	-0.00509304733244038
4.06800e-06	-0.0050833329898387234
4.06825e-06	-0.005093377564576308
4.06850e-06	-0.005103422139313858
4.06875e-06	-0.005113466714051443
4.06900e-06	-0.005123511288788993
4.06925e-06	-0.0051335558635265425
4.06950e-06	-0.005143600438264127
4.06975e-06	-0.005153645013001677
4.07000e-06	-0.005163689587739227
4.07025e-06	-0.005173734162476812
4.07050e-06	-0.005183778737214362
4.07075e-06	-0.0051938233119519115
4.07100e-06	-0.005203867886689496
4.07125e-06	-0.0052243943150283995
4.07150e-06	-0.00524710073549967
4.07175e-06	-0.005269807155971018
4.07200e-06	-0.005292513576442288
4.07225e-06	-0.00531521999691356
4.07250e-06	-0.005337926417384908
4.07275e-06	-0.005360632837856178
4.07300e-06	-0.005383339258327526
4.07325e-06	-0.005406045678798797
4.07350e-06	-0.005428752099270068
4.07375e-06	-0.005451458519741416
4.07400e-06	-0.0054741649402126865
4.07425e-06	-0.005491480049755836
4.07450e-06	-0.005507673886683304
4.07475e-06	-0.005523867723610718
4.07500e-06	-0.005540061560538132
4.07525e-06	-0.005556255397465601
4.07550e-06	-0.005572449234393015
4.07575e-06	-0.005588643071320429
4.07600e-06	-0.005604836908247897
4.07625e-06	-0.005621030745175311
4.07650e-06	-0.005637224582102725
4.07675e-06	-0.0056534184190301946
4.07700e-06	-0.0056696122559576085
4.07725e-06	-0.005673712314533091
4.07750e-06	-0.0056752971365239425
4.07775e-06	-0.005676881958514794
4.07800e-06	-0.0056784667805056515
4.07825e-06	-0.005680051602496503
4.07850e-06	-0.005681636424487355
4.07875e-06	-0.005683221246478212
4.07900e-06	-0.005684806068469064
4.07925e-06	-0.005686390890459916
4.07950e-06	-0.005687975712450773
4.07975e-06	-0.005689560534441625
4.08000e-06	-0.005691145356432477
4.08025e-06	-0.005692730178423334
4.08050e-06	-0.005694315000414186
4.08075e-06	-0.0056935026233671865
4.08100e-06	-0.005687775117991569
4.08125e-06	-0.00568204761261597
4.08150e-06	-0.005676320107240352
4.08175e-06	-0.0056705926018647546
4.08200e-06	-0.005664865096489156
4.08225e-06	-0.005659137591113538
4.08250e-06	-0.0056534100857379395
4.08275e-06	-0.005647682580362342
4.08300e-06	-0.005641955074986724
4.08325e-06	-0.005636227569611125
4.08350e-06	-0.005630500064235527
4.08375e-06	-0.005624772558859909
4.08400e-06	-0.00561904505348431
4.08425e-06	-0.0056133175481087125
4.08450e-06	-0.0056116055384048975
4.08475e-06	-0.005610728662380798
4.08500e-06	-0.005609851786356699
4.08525e-06	-0.005608974910332597
4.08550e-06	-0.005608098034308498
4.08575e-06	-0.005607221158284395
4.08600e-06	-0.005610265259046491
4.08625e-06	-0.0056213487857265975
4.08650e-06	-0.005632432312406741
4.08675e-06	-0.005643515839086846
4.08700e-06	-0.005654599365766952
4.08725e-06	-0.0056656828924470945
4.08750e-06	-0.005676766419127201
4.08775e-06	-0.005694722164420742
4.08800e-06	-0.005723353847557799
4.08825e-06	-0.005753908632019655
4.08850e-06	-0.005784463416481511
4.08875e-06	-0.00581501820094347
4.08900e-06	-0.005845572985405326
4.08925e-06	-0.005876127769867182
4.08950e-06	-0.0059066825543291415
4.08975e-06	-0.005937237338790997
4.09000e-06	-0.005967792123252957
4.09025e-06	-0.005998346907714812
4.09050e-06	-0.0060389374561434575
4.09075e-06	-0.006081615219993099
4.09100e-06	-0.006124292983842596
4.09125e-06	-0.006166970747692092
4.09150e-06	-0.006209648511541733
4.09175e-06	-0.0062523262753912305
4.09200e-06	-0.006295004039240728
4.09225e-06	-0.006337681803090369
4.09250e-06	-0.006380359566939865
4.09275e-06	-0.006423037330789362
4.09300e-06	-0.006464804417068777
4.09325e-06	-0.0065063821026931385
4.09350e-06	-0.006547959788317499
4.09375e-06	-0.0065895374739420014
4.09400e-06	-0.006631115159566362
4.09425e-06	-0.006666595422485384
4.09450e-06	-0.006700807557263884
4.09475e-06	-0.0067350196920423835
4.09500e-06	-0.006769231826820999
4.09525e-06	-0.006803443961599499
4.09550e-06	-0.006837805280351788
4.09575e-06	-0.006872197626048593
4.09600e-06	-0.006906589971745281
4.09625e-06	-0.006940982317441969
4.09650e-06	-0.0069753746631387725
4.09675e-06	-0.00700976700883546
4.09700e-06	-0.007044159354532148
4.09725e-06	-0.007078551700228952
4.09750e-06	-0.0071129440459256395
4.09775e-06	-0.007155825529397148
4.09800e-06	-0.0072004725644827915
4.09825e-06	-0.007245119599568284
4.09850e-06	-0.007289766634653929
4.09875e-06	-0.007334413669739422
4.09900e-06	-0.0073790607048249135
4.09925e-06	-0.007423707739910558
4.09950e-06	-0.007468354774996051
4.09975e-06	-0.007513001810081543
4.10000e-06	-0.0075650063379328345
4.10025e-06	-0.007618541060436318
4.10050e-06	-0.007672075782939801
4.10075e-06	-0.007725610505443466
4.10100e-06	-0.007779145227946948
4.10125e-06	-0.007832679950450432
4.10150e-06	-0.007886214672954096
4.10175e-06	-0.00793974939545758
4.10200e-06	-0.007992644464402898
4.10225e-06	-0.008044228011329077
4.10250e-06	-0.00809581155825508
4.10275e-06	-0.00814739510518126
4.10300e-06	-0.008198978652107263
4.10325e-06	-0.008250562199033267
4.10350e-06	-0.008302145745959446
4.10375e-06	-0.00835372929288545
4.10400e-06	-0.008405312839811453
4.10425e-06	-0.008443457901634137
4.10450e-06	-0.008478808057815142
4.10475e-06	-0.008514158213996148
4.10500e-06	-0.008549508370177273
4.10525e-06	-0.008584858526358279
4.10550e-06	-0.008620208682539286
4.10575e-06	-0.008655558838720412
4.10600e-06	-0.008690908994901417
4.10625e-06	-0.008717907843134351
4.10650e-06	-0.008727783478148243
4.10675e-06	-0.008737659113162101
4.10700e-06	-0.008747534748175995
4.10725e-06	-0.008757410383189853
4.10750e-06	-0.008767286018203712
4.10775e-06	-0.008777161653217604
4.10800e-06	-0.008787037288231462
4.10825e-06	-0.008796912923245321
4.10850e-06	-0.008786977634022744
4.10875e-06	-0.008772922113726647
4.10900e-06	-0.00875886659343055
4.10925e-06	-0.008744811073134406
4.10950e-06	-0.00873075555283831
4.10975e-06	-0.008716700032542213
4.11000e-06	-0.00870264451224607
4.11025e-06	-0.008688588991949972
4.11050e-06	-0.008674533471653876
4.11075e-06	-0.008649235142127802
4.11100e-06	-0.008621598558647232
4.11125e-06	-0.008593961975166568
4.11150e-06	-0.008566325391686
4.11175e-06	-0.008538688808205429
4.11200e-06	-0.008511052224724765
4.11225e-06	-0.008483415641244194
4.11250e-06	-0.008455779057763626
4.11275e-06	-0.008428142474282961
4.11300e-06	-0.008403107594200864
4.11325e-06	-0.008378613810488473
4.11350e-06	-0.008354120026776
4.11375e-06	-0.008329626243063607
4.11400e-06	-0.008305132459351217
4.11425e-06	-0.008280638675638741
4.11450e-06	-0.00825614489192635
4.11475e-06	-0.008231651108213958
4.11500e-06	-0.008207157324501484
4.11525e-06	-0.008190039059080218
4.11550e-06	-0.008188043283819788
4.11575e-06	-0.008186047508559365
4.11600e-06	-0.008184051733298942
4.11625e-06	-0.008182055958038514
4.11650e-06	-0.00818006018277809
4.11675e-06	-0.008178064407517668
4.11700e-06	-0.008176068632257238
4.11725e-06	-0.008174072856996815
4.11750e-06	-0.008172077081736392
4.11775e-06	-0.008192531912003403
4.11800e-06	-0.008217655968268161
4.11825e-06	-0.008242780024532919
4.11850e-06	-0.008267904080797764
4.11875e-06	-0.008293028137062522
4.11900e-06	-0.00831815219332728
4.11925e-06	-0.008343276249592123
4.11950e-06	-0.008368400305856881
4.11975e-06	-0.008408555707576084
4.12000e-06	-0.008451837294416833
4.12025e-06	-0.008495118881257582
4.12050e-06	-0.008538400468098476
4.12075e-06	-0.008581682054939225
4.12100e-06	-0.008624963641779974
4.12125e-06	-0.00866824522862087
4.12150e-06	-0.008711526815461619
4.12175e-06	-0.008760100064505274
4.12200e-06	-0.008809773861447278
4.12225e-06	-0.008859447658389115
4.12250e-06	-0.008909121455330953
4.12275e-06	-0.008958795252272958
4.12300e-06	-0.009008469049214794
4.12325e-06	-0.00905461974004635
4.12350e-06	-0.009100037703263206
4.12375e-06	-0.00914545566647991
4.12400e-06	-0.009190873629696766
4.12425e-06	-0.009236291592913467
4.12450e-06	-0.009281709556130169
4.12475e-06	-0.00932058912371942
4.12500e-06	-0.009358108850621667
4.12525e-06	-0.009389570243331431
4.12550e-06	-0.009419771637442452
4.12575e-06	-0.009438125305508749
4.12600e-06	-0.00945401491039512
4.12625e-06	-0.009469904515281548
4.12650e-06	-0.009471414892428013
4.12675e-06	-0.00946993471041609
4.12700e-06	-0.009468454528404164
4.12725e-06	-0.009444139432694414
4.12750e-06	-0.009415075183447101
4.12775e-06	-0.00938601093419969
4.12800e-06	-0.009356946684952377
4.12825e-06	-0.009327882435704966
4.12850e-06	-0.009298818186457653
4.12875e-06	-0.009241804493185094
4.12900e-06	-0.009178977937962608
4.12925e-06	-0.009116151382740335
4.12950e-06	-0.009053324827518063
4.12975e-06	-0.008990498272295576
4.13000e-06	-0.008927671717073303
4.13025e-06	-0.008844292192062456
4.13050e-06	-0.008756638107030581
4.13075e-06	-0.008668984021999004
4.13100e-06	-0.008581329936967426
4.13125e-06	-0.008493675851935552
4.13150e-06	-0.008406021766903974
4.13175e-06	-0.008318367681872397
4.13200e-06	-0.008225768828219831
4.13225e-06	-0.008132141572809875
4.13250e-06	-0.008038514317399601
4.13275e-06	-0.007944887061989645
4.13300e-06	-0.00785125980657969
4.13325e-06	-0.007757632551169417
4.13350e-06	-0.007664005295759461
4.13375e-06	-0.007579134535681252
4.13400e-06	-0.007496084931632639
4.13425e-06	-0.007413035327584308
4.13450e-06	-0.007353600704942827
4.13475e-06	-0.007299077472549676
4.13500e-06	-0.007244554240156709
4.13525e-06	-0.007190031007763742
4.13550e-06	-0.007135507775370591
4.13575e-06	-0.007080984542977624
4.13600e-06	-0.007026461310584657
4.13625e-06	-0.006971938078191506
4.13650e-06	-0.006955242234882657
4.13675e-06	-0.006946413646121238
4.13700e-06	-0.006937585057359849
4.13725e-06	-0.00692875646859846
4.13750e-06	-0.00691992787983704
4.13775e-06	-0.006911099291075651
4.13800e-06	-0.006902270702314262
4.13825e-06	-0.006893442113552843
4.13850e-06	-0.006916825049583756
4.13875e-06	-0.006946907265449216
4.13900e-06	-0.006976989481314778
4.13925e-06	-0.007007071697180238
4.13950e-06	-0.007037153913045698
4.13975e-06	-0.0070672361289112594
4.14000e-06	-0.007097318344776719
4.14025e-06	-0.007135323167568741
4.14050e-06	-0.00718957221083489
4.14075e-06	-0.007243821254100857
4.14100e-06	-0.007298070297367007
4.14125e-06	-0.007352319340632973
4.14150e-06	-0.007406568383898939
4.14175e-06	-0.0074608174271650896
4.14200e-06	-0.007515066470431055
4.14225e-06	-0.007574774053787572
4.14250e-06	-0.00763561689192612
4.14275e-06	-0.007696459730064462
4.14300e-06	-0.007757302568202804
4.14325e-06	-0.007818145406341351
4.14350e-06	-0.007878988244479693
4.14375e-06	-0.007932663441580732
4.14400e-06	-0.007984847928963479
4.14425e-06	-0.00803703241634605
4.14450e-06	-0.008089216903728621
4.14475e-06	-0.008141401391111368
4.14500e-06	-0.008193585878493939
4.14525e-06	-0.008230336304670524
4.14550e-06	-0.008263876789819746
4.14575e-06	-0.008297417274968967
4.14600e-06	-0.008330957760118303
4.14625e-06	-0.008364498245267525
