Time(s)	Current(A)
1.00000e-05	-0.005181707177100898
1.00003e-05	-0.005232042601121784
1.00005e-05	-0.005278581282953443
1.00008e-05	-0.005324489897946538
1.00010e-05	-0.005370398512939634
1.00013e-05	-0.005402105758543071
1.00015e-05	-0.00543145629634982
1.00018e-05	-0.00546080683415657
1.00020e-05	-0.00549015737196312
1.00023e-05	-0.00551950790976987
1.00025e-05	-0.005548858447576619
1.00028e-05	-0.0055782089853831695
1.00030e-05	-0.005607559523189918
1.00033e-05	-0.005636910060996668
1.00035e-05	-0.005666260598803218
1.00038e-05	-0.005678089969177972
1.00040e-05	-0.005687011713479894
1.00042e-05	-0.005695933457781755
1.00045e-05	-0.005704855202083675
1.00048e-05	-0.005713776946385597
1.00050e-05	-0.005722698690687458
1.00053e-05	-0.0057316204349893785
1.00055e-05	-0.0057405421792913
1.00057e-05	-0.005749463923593161
1.00060e-05	-0.005758385667895082
1.00063e-05	-0.005755766298427498
1.00065e-05	-0.005751231688811723
1.00068e-05	-0.0057466970791959174
1.00070e-05	-0.005742162469580111
1.00073e-05	-0.005737627859964306
1.00075e-05	-0.005733093250348531
1.00078e-05	-0.0057285586407327255
1.00080e-05	-0.005724024031116919
1.00083e-05	-0.005719489421501144
1.00085e-05	-0.005714954811885339
1.00088e-05	-0.005708831189890474
1.00090e-05	-0.005699853905501646
1.00093e-05	-0.005690876621112758
1.00095e-05	-0.005681899336723869
1.00098e-05	-0.005672922052335041
1.00100e-05	-0.005663944767946153
1.00103e-05	-0.005654967483557264
1.00105e-05	-0.005645990199168436
1.00108e-05	-0.0056370129147795475
1.00110e-05	-0.005628035630390659
1.00113e-05	-0.005619058346001832
1.00115e-05	-0.005611557944905305
1.00118e-05	-0.005604302631608192
1.00120e-05	-0.005597047318311128
1.00123e-05	-0.005586773671380063
1.00125e-05	-0.005575999133991295
1.00127e-05	-0.005565224596602601
1.00130e-05	-0.005554450059213833
1.00133e-05	-0.005543675521825066
1.00135e-05	-0.005532900984436371
1.00138e-05	-0.005522126447047604
1.00140e-05	-0.005505361837168844
1.00142e-05	-0.005487603178747073
1.00145e-05	-0.005469844520325182
1.00148e-05	-0.005452085861903291
1.00150e-05	-0.00543432720348152
1.00153e-05	-0.0054165685450596295
1.00155e-05	-0.005398809886637738
1.00157e-05	-0.005375464941535546
1.00160e-05	-0.005351192955876312
1.00163e-05	-0.00532692097021708
1.00165e-05	-0.005302648984557848
1.00168e-05	-0.00527837699889878
1.00170e-05	-0.005254105013239547
1.00173e-05	-0.005228533964131106
1.00175e-05	-0.005200629963711459
1.00178e-05	-0.005172725963291621
1.00180e-05	-0.005144821962871785
1.00183e-05	-0.005116917962452137
1.00185e-05	-0.0050890139620323
1.00188e-05	-0.0050611099616124635
1.00190e-05	-0.005033049689476452
1.00193e-05	-0.005004963484152915
1.00195e-05	-0.004976877278829378
1.00198e-05	-0.004950158963054727
1.00200e-05	-0.004923667647640219
1.00203e-05	-0.004897176332225711
1.00205e-05	-0.004872848878293068
1.00208e-05	-0.004848880515733194
1.00210e-05	-0.004824912153173319
1.00212e-05	-0.0048063303113810305
1.00215e-05	-0.004788642359125529
1.00218e-05	-0.004770954406870027
1.00220e-05	-0.004753266454614645
1.00223e-05	-0.004735578502359144
1.00225e-05	-0.004717890550103643
1.00227e-05	-0.004700202597848261
1.00230e-05	-0.004682514645592759
1.00233e-05	-0.004666418059853804
1.00235e-05	-0.004653179364239415
1.00238e-05	-0.004639940668624937
1.00240e-05	-0.004626701973010459
1.00242e-05	-0.0046134632773960705
1.00245e-05	-0.0046002245817815925
1.00248e-05	-0.0045869858861671145
1.00250e-05	-0.004573747190552636
1.00253e-05	-0.004560508494938248
1.00255e-05	-0.004549092235753014
1.00258e-05	-0.004537978408680574
1.00260e-05	-0.0045268645816082115
1.00263e-05	-0.004515750754535772
1.00265e-05	-0.004504636927463334
1.00268e-05	-0.00449352310039097
1.00270e-05	-0.004482409273318532
1.00273e-05	-0.004471295446246093
1.00275e-05	-0.004460181619173729
1.00278e-05	-0.004449067792101291
1.00280e-05	-0.004438650046227927
1.00283e-05	-0.004429482372895638
1.00285e-05	-0.004420314699563287
1.00288e-05	-0.0044111470262309365
1.00290e-05	-0.004401979352898648
1.00293e-05	-0.004392811679566298
1.00295e-05	-0.004383644006233947
1.00297e-05	-0.004374476332901659
1.00300e-05	-0.004365308659569308
1.00303e-05	-0.004356140986236957
1.00305e-05	-0.004346973312904669
1.00308e-05	-0.004341476223507915
1.00310e-05	-0.004336588265073127
1.00312e-05	-0.004331700306638373
1.00315e-05	-0.004326812348203584
1.00318e-05	-0.004321924389768797
1.00320e-05	-0.004317036431334041
1.00323e-05	-0.004312148472899254
1.00325e-05	-0.004307260514464466
1.00327e-05	-0.004302372556029711
1.00330e-05	-0.004297484597594923
1.00333e-05	-0.004292596639160135
1.00335e-05	-0.004287708680725347
1.00338e-05	-0.0042828207222905925
1.00340e-05	-0.004277932763855804
1.00343e-05	-0.0042730448054210165
1.00345e-05	-0.004268156846986261
1.00348e-05	-0.0042632688885514735
1.00350e-05	-0.004258380930116685
1.00353e-05	-0.004254710088202702
1.00355e-05	-0.004253225031430276
1.00358e-05	-0.004251739974657851
1.00360e-05	-0.004250254917885435
1.00363e-05	-0.00424876986111301
1.00365e-05	-0.004247284804340585
1.00368e-05	-0.0042457997475681694
1.00370e-05	-0.004244314690795744
1.00373e-05	-0.004242829634023319
1.00375e-05	-0.0042413445772509035
1.00378e-05	-0.004239859520478478
1.00380e-05	-0.004238374463706053
1.00382e-05	-0.004236889406933638
1.00385e-05	-0.004235404350161212
1.00388e-05	-0.004233919293388787
1.00390e-05	-0.004232434236616372
1.00393e-05	-0.0042309491798439465
1.00395e-05	-0.0042294641230715205
1.00397e-05	-0.004227979066299106
1.00400e-05	-0.004227276200775139
1.00403e-05	-0.0042267031393685255
1.00405e-05	-0.004226130077961917
1.00408e-05	-0.004225557016555304
1.00410e-05	-0.004224983955148691
1.00412e-05	-0.004224410893742082
1.00415e-05	-0.004223837832335468
1.00418e-05	-0.0042232647709288555
1.00420e-05	-0.004222691709522243
1.00423e-05	-0.004222118648115634
1.00425e-05	-0.00422154558670902
1.00428e-05	-0.004220972525302407
1.00430e-05	-0.004221099879918372
1.00433e-05	-0.0042224850918629545
1.00435e-05	-0.004223870303807536
1.00438e-05	-0.0042252555157521075
1.00440e-05	-0.00422664072769669
1.00443e-05	-0.004228025939641271
1.00445e-05	-0.0042294111515858435
1.00448e-05	-0.004230796363530425
1.00450e-05	-0.004232181575475007
1.00453e-05	-0.0042335667874195786
1.00455e-05	-0.00423495199936416
1.00458e-05	-0.004236337211308742
1.00460e-05	-0.004237722423253314
1.00463e-05	-0.0042408373641957
1.00465e-05	-0.004244239352514689
1.00467e-05	-0.004247641340833654
1.00470e-05	-0.004251043329152642
1.00473e-05	-0.0042544453174716305
1.00475e-05	-0.0042578473057905955
1.00478e-05	-0.004261249294109584
1.00480e-05	-0.004264651282428572
1.00482e-05	-0.004268053270747537
1.00485e-05	-0.004271455259066526
1.00488e-05	-0.004274842447947042
1.00490e-05	-0.004278203058934478
1.00493e-05	-0.004281563669921937
1.00495e-05	-0.004284924280909396
1.00497e-05	-0.004288284891896832
1.00500e-05	-0.004291645502884291
1.00503e-05	-0.00429500611387175
1.00505e-05	-0.004298366724859209
1.00508e-05	-0.004301727335846645
1.00510e-05	-0.004305087946834104
1.00513e-05	-0.004308448557821563
1.00515e-05	-0.00431095707394182
1.00518e-05	-0.004313324185485634
1.00520e-05	-0.004315691297029449
1.00523e-05	-0.004319853905053804
1.00525e-05	-0.004324314474524925
1.00528e-05	-0.0043287750439960455
1.00530e-05	-0.004337116733164454
1.00533e-05	-0.004346102491565335
1.00535e-05	-0.004355088249966214
1.00538e-05	-0.004364074008367034
1.00540e-05	-0.004373059766767914
1.00543e-05	-0.004382045525168795
1.00545e-05	-0.004393509748421897
1.00548e-05	-0.0044094249766191045
1.00550e-05	-0.004425340204816312
1.00552e-05	-0.004441255433013412
1.00555e-05	-0.00445717066121062
1.00558e-05	-0.0044730858894078285
1.00560e-05	-0.004489001117604928
1.00563e-05	-0.0045101508461505985
1.00565e-05	-0.004532169236547829
1.00567e-05	-0.00455418762694491
1.00570e-05	-0.004576206017342142
1.00573e-05	-0.004598224407739372
1.00575e-05	-0.004620242798136454
1.00578e-05	-0.004642261188533685
1.00580e-05	-0.0046650301563254575
1.00582e-05	-0.00468914706483582
1.00585e-05	-0.004713263973346346
1.00588e-05	-0.0047373808818568725
1.00590e-05	-0.004761497790367398
1.00593e-05	-0.004785614698877761
1.00595e-05	-0.004809731607388287
1.00598e-05	-0.004833848515898813
1.00600e-05	-0.004856249671562761
1.00603e-05	-0.004878366099183013
1.00605e-05	-0.004900482526803265
1.00608e-05	-0.004920895841048072
1.00610e-05	-0.00494102652476098
1.00613e-05	-0.004960958777280094
1.00615e-05	-0.004972712110009207
1.00618e-05	-0.004984465442738399
1.00620e-05	-0.0049946522908458
1.00623e-05	-0.005010883403191331
1.00625e-05	-0.08378568147015862
1.00628e-05	-0.04283646493747686
1.00630e-05	-0.022059913073757154
1.00633e-05	-0.007800397298644354
1.00635e-05	0.00562244543835313
1.00637e-05	0.014216152256457898
1.00640e-05	0.009965581956718346
1.00643e-05	9.112683164960939e-05
1.00645e-05	-0.011213568906233892
1.00648e-05	-0.019055431554731408
1.00650e-05	-0.014745469209168539
1.00652e-05	-0.005815944513746689
1.00655e-05	0.002394856669148023
1.00658e-05	0.007668520923165787
1.00660e-05	0.004935798243331941
1.00663e-05	-0.001301278966420191
1.00665e-05	-0.008424914474958013
1.00667e-05	-0.013374219480215641
1.00670e-05	-0.010708663394797202
1.00673e-05	-0.005147733163868032
1.00675e-05	-3.581260022547292e-05
1.00678e-05	0.003237405093340207
1.00680e-05	0.0014967582589665526
1.00683e-05	-0.0024374215347657217
1.00685e-05	-0.006925270781456125
1.00688e-05	-0.010049527081634828
1.00690e-05	-0.008402560850545334
1.00693e-05	-0.004940979723190485
1.00695e-05	-0.0017597955528459968
1.00698e-05	0.00027053344605794014
1.00700e-05	-0.0008387324935196413
1.00703e-05	-0.003320751700500042
1.00705e-05	-0.006148251946199689
1.00708e-05	-0.008120298147640747
1.00710e-05	-0.007102541176378656
1.00713e-05	-0.004947194768132307
1.00715e-05	-0.002966623694890913
1.00718e-05	-0.0017060749681718594
1.00720e-05	-0.002411292550125817
1.00722e-05	-0.003975584424918278
1.00725e-05	-0.0057555414894062944
1.00728e-05	-0.006998960114381829
1.00730e-05	-0.006369026040177511
1.00733e-05	-0.0050261073659845276
1.00735e-05	-0.003792320704180222
1.00737e-05	-0.0030092080189183987
1.00740e-05	-0.0034570478625486054
1.00743e-05	-0.004442551483644049
1.00745e-05	-0.005562679213397437
1.00748e-05	-0.0063462821851522355
1.00750e-05	-0.0059560702190944856
1.00752e-05	-0.0051189896997094406
1.00755e-05	-0.004350049044927401
1.00758e-05	-0.0038631914008285684
1.00760e-05	-0.0041471509399997886
1.00763e-05	-0.004767618587666034
1.00765e-05	-0.005472127619224184
1.00768e-05	-0.0059655710634829925
1.00770e-05	-0.0057235302867549446
1.00773e-05	-0.00520142353031628
1.00775e-05	-0.0047218761030004275
1.00778e-05	-0.004418904511369604
1.00780e-05	-0.0045986341671535235
1.00783e-05	-0.004988994750446262
1.00785e-05	-0.005431841353279725
1.00788e-05	-0.005742334446154039
1.00790e-05	-0.0055920173312949155
1.00793e-05	-0.005266203101658495
1.00795e-05	-0.004967001009900423
1.00798e-05	-0.004778362688034634
1.00800e-05	-0.004892035920318643
1.00803e-05	-0.005137585555523053
1.00805e-05	-0.0054159519873092825
1.00808e-05	-0.005611362991138805
1.00810e-05	-0.0055180997591898736
1.00813e-05	-0.005314908663305474
1.00815e-05	-0.005128391316111335
1.00818e-05	-0.005010932168844504
1.00820e-05	-0.005081814697355629
1.00822e-05	-0.005233112867544861
1.00825e-05	-0.005402189647463352
1.00828e-05	-0.005516555499175916
1.00830e-05	-0.005447515674211202
1.00833e-05	-0.005307204931909435
1.00835e-05	-0.005175085862744348
1.00837e-05	-0.005084125513448177
1.00840e-05	-0.005109192298193043
1.00843e-05	-0.005182830002375047
1.00845e-05	-0.005265956069824848
1.00848e-05	-0.005313319962693769
1.00850e-05	-0.0052444705372294695
1.00853e-05	-0.005129811278287576
1.00855e-05	-0.005019275293558148
1.00858e-05	-0.004933667473455145
1.00860e-05	-0.004920035951476888
1.00863e-05	-0.004936276561171476
1.00865e-05	-0.004958062283103652
1.00868e-05	-0.004957204017369332
1.00870e-05	-0.004883466224677919
1.00873e-05	-0.004781110296119671
1.00875e-05	-0.004681569294496048
1.00878e-05	-0.0045980303292278545
1.00880e-05	-0.00456011575412169
1.00883e-05	-0.004541604241740896
1.00885e-05	-0.004527409989864774
1.00888e-05	-0.004500031143696854
1.00890e-05	-0.004428157647616506
1.00893e-05	-0.004339672104746852
1.00895e-05	-0.004254419553687092
1.00898e-05	-0.004180813994768635
1.00900e-05	-0.004137564075073939
1.00903e-05	-0.004108396569192627
1.00905e-05	-0.0040840161497900495
1.00907e-05	-0.004053614103136662
1.00910e-05	-0.0039977334533146955
1.00913e-05	-0.003933995941531425
1.00915e-05	-0.0038749747980239215
1.00918e-05	-0.003825875055442591
1.00920e-05	-0.0037976762977472984
1.00922e-05	-0.003778996478664467
1.00925e-05	-0.0037633086185662502
1.00928e-05	-0.003743721417398656
1.00930e-05	-0.003708055439949505
1.00933e-05	-0.0036673573013125873
1.00935e-05	-0.003629510013489784
1.00938e-05	-0.003597780986472081
1.00940e-05	-0.0035790540588904064
1.00943e-05	-0.0035662062204687315
1.00945e-05	-0.003555155976743575
1.00948e-05	-0.0035415936096629256
1.00950e-05	-0.0035178977395997455
1.00953e-05	-0.0034909958803641967
1.00955e-05	-0.0034658332047207705
1.00958e-05	-0.0034444634554747556
1.00960e-05	-0.003431205181505883
1.00963e-05	-0.00342169000183454
1.00965e-05	-0.0034133399964611532
1.00968e-05	-0.00340302650738863
1.00970e-05	-0.003386592965371613
1.00973e-05	-0.0033682992807447187
1.00975e-05	-0.0033512035743190538
1.00978e-05	-0.0033358675526446533
1.00980e-05	-0.003326025518394627
1.00983e-05	-0.003318564099701592
1.00985e-05	-0.0033118742932328523
1.00988e-05	-0.0033039738786009576
1.00990e-05	-0.0032923071666623354
1.00992e-05	-0.003279544176205545
1.00995e-05	-0.003267604504383653
1.00998e-05	-0.0032567980230781856
1.01000e-05	-0.00324953904729047
1.01003e-05	-0.0032438719533068
1.01005e-05	-0.0032387910065856634
1.01007e-05	-0.0032329940890612552
1.01010e-05	-0.003224982257934105
1.01013e-05	-0.0032164166649525624
1.01015e-05	-0.0032085014708062272
1.01018e-05	-0.003201355420662895
1.01020e-05	-0.003196642966884177
1.01023e-05	-0.0031931545827786952
1.01025e-05	-0.00319026387392243
1.01028e-05	-0.0031869375246375074
1.01030e-05	-0.003182444475291597
1.01033e-05	-0.0031781037924833084
1.01035e-05	-0.0031741711664966727
1.01038e-05	-0.003170918018039952
1.01040e-05	-0.0031694845961823016
1.01043e-05	-0.0031683757523975555
1.01045e-05	-0.0031681361696652348
1.01048e-05	-0.0031676787983693157
1.01050e-05	-0.0031666381618075013
1.01053e-05	-0.003165735269153376
1.01055e-05	-0.0031652012720721576
1.01058e-05	-0.0031651224439101645
1.01060e-05	-0.0031662626155721414
1.01063e-05	-0.003167622886299844
1.01065e-05	-0.003169572610109808
1.01068e-05	-0.003171389907332044
1.01070e-05	-0.003172852549435468
1.01073e-05	-0.0031743927357884044
1.01075e-05	-0.003176140595430314
1.01077e-05	-0.003178152042219088
1.01080e-05	-0.0031808694086611724
1.01083e-05	-0.003183690336239734
1.01085e-05	-0.0031867886136148146
1.01088e-05	-0.0031897568698564705
1.01090e-05	-0.0031923769130895075
1.01092e-05	-0.003194985751969742
1.01095e-05	-0.0031975645841788524
1.01098e-05	-0.003200235963075934
1.01100e-05	-0.0032031551936860664
1.01103e-05	-0.0032060539462841695
1.01105e-05	-0.0032088978561810796
1.01108e-05	-0.003211562243227729
1.01110e-05	-0.003213745845419222
1.01113e-05	-0.0032158115803514998
1.01115e-05	-0.003217561651884524
1.01118e-05	-0.003219246396343679
1.01120e-05	-0.0032207561866524526
1.01123e-05	-0.003222128296354987
1.01125e-05	-0.0032231316800138098
1.01128e-05	-0.0032239097422391157
1.01130e-05	-0.003224084365221857
1.01133e-05	-0.0032240857954971606
1.01135e-05	-0.003223623393838864
1.01138e-05	-0.0032230343576735393
1.01140e-05	-0.0032221061783126166
1.01143e-05	-0.003221019492175584
1.01145e-05	-0.0032195083048829486
1.01148e-05	-0.0032177973699337808
1.01150e-05	-0.0032155514855450955
1.01153e-05	-0.003213152063542421
1.01155e-05	-0.0032103414484275722
1.01158e-05	-0.00320741992921058
1.01160e-05	-0.0032042013948080307
1.01162e-05	-0.0032008656261605663
1.01165e-05	-0.00319721588940597
1.01168e-05	-0.003193436637929375
1.01170e-05	-0.0031893105296778913
1.01173e-05	-0.003185097381962673
1.01175e-05	-0.0031806511315761368
1.01177e-05	-0.003176158133084943
1.01180e-05	-0.0031715399372680684
1.01183e-05	-0.003166884583512871
1.01185e-05	-0.0031621297161081715
1.01188e-05	-0.0031573442952141854
1.01190e-05	-0.003152477048218816
1.01193e-05	-0.003147609801223446
1.01195e-05	-0.0031427843753716374
1.01198e-05	-0.0031380709518215085
1.01200e-05	-0.0031333575282713796
1.01203e-05	-0.0031287249722957364
1.01205e-05	-0.0031243089898928753
1.01208e-05	-0.003119951846167474
1.01210e-05	-0.003115803174196144
1.01213e-05	-0.003111853345525061
1.01215e-05	-0.00310815032840836
1.01218e-05	-0.003104887743142876
1.01220e-05	-0.0031027406310010913
1.01223e-05	-0.0031026191681513163
1.01225e-05	-0.0031049802999198275
1.01228e-05	-0.0031097995626844575
1.01230e-05	-0.003116947309139638
1.01233e-05	-0.003126314447941255
1.01235e-05	-0.0031381004596561816
1.01238e-05	-0.0031521920687020448
1.01240e-05	-0.003167745276072903
1.01243e-05	-0.003187212828265412
1.01245e-05	-0.003208574264235795
1.01247e-05	-0.0032350077600402836
1.01250e-05	-0.003261441255844951
1.01253e-05	-0.0032897264661260655
1.01255e-05	-0.003322970801528885
1.01258e-05	-0.0033562151369319303
1.01260e-05	-0.00339120853299541
1.01262e-05	-0.0034308861343027718
1.01265e-05	-0.0034705637356104023
1.01268e-05	-0.0035116681511082526
1.01270e-05	-0.0035565937551238413
1.01273e-05	-0.0036015193591391256
1.01275e-05	-0.0036472840868860845
1.01278e-05	-0.003695296093913949
1.01280e-05	-0.003743308100941488
1.01283e-05	-0.003791804321693628
1.01285e-05	-0.0038415973279250157
1.01288e-05	-0.003891390334156066
1.01290e-05	-0.003941015718205758
1.01293e-05	-0.00399019218889275
1.01295e-05	-0.004039368659579408
1.01298e-05	-0.004087911525171759
1.01300e-05	-0.004134757516336205
1.01303e-05	-0.004180831926392861
1.01305e-05	-0.00422483994484181
1.01308e-05	-0.004267744302891319
1.01310e-05	-0.004307692919067892
1.01313e-05	-0.004346184209766372
1.01315e-05	-0.004380772598865016
1.01318e-05	-0.004413613615341423
1.01320e-05	-0.004441774947352646
1.01323e-05	-0.0044676127371430585
1.01325e-05	-0.004487227787548189
1.01328e-05	-0.004506842837953453
1.01330e-05	-0.004523528846877479
1.01332e-05	-0.004532370512959981
1.01335e-05	-0.004541212179042542
1.01338e-05	-0.004547039009108266
1.01340e-05	-0.004544791727735724
1.01343e-05	-0.004542544446363167
1.01345e-05	-0.0045368009567802675
1.01347e-05	-0.004521694180258104
1.01350e-05	-0.004506587403735839
1.01353e-05	-0.0044914806272135736
1.01355e-05	-0.004476373850691308
1.01358e-05	-0.004450906922716201
1.01360e-05	-0.004422378132209107
1.01363e-05	-0.004393849341702012
1.01365e-05	-0.004365320551195111
1.01368e-05	-0.0043344414349297455
1.01370e-05	-0.004297267849584398
1.01373e-05	-0.004260094264239302
1.01375e-05	-0.004221776083571133
1.01378e-05	-0.00418039253213745
1.01380e-05	-0.004138500733537672
1.01383e-05	-0.004095002934942124
1.01385e-05	-0.0040506748120021354
1.01388e-05	-0.00400577379390962
1.01390e-05	-0.003960554977196691
1.01393e-05	-0.003915274602174528
1.01395e-05	-0.003870188995007029
1.01398e-05	-0.003825557158716004
1.01400e-05	-0.003781653158309704
1.01403e-05	-0.0037387696757538906
1.01405e-05	-0.003697205285785867
1.01408e-05	-0.003657256596447094
1.01410e-05	-0.003619218052649323
1.01413e-05	-0.003583385116478839
1.01415e-05	-0.003550046413468464
1.01417e-05	-0.0035193771812506492
1.01420e-05	-0.0034911800307134994
1.01423e-05	-0.003465235162311556
1.01425e-05	-0.003441230555781648
1.01428e-05	-0.003418282291833175
1.01430e-05	-0.003398163046669079
1.01432e-05	-0.003379247098352045
1.01435e-05	-0.003363553730893165
1.01438e-05	-0.003349272924252302
1.01440e-05	-0.003338775133801451
1.01443e-05	-0.0033282773433506705
1.01445e-05	-0.003319701973152266
1.01448e-05	-0.0033162750870732714
1.01450e-05	-0.0033128482009943
1.01453e-05	-0.003309421314915305
1.01455e-05	-0.0033059944288363102
1.01458e-05	-0.003302567542757339
