Time(s)	Current(A)
7.75000e-06	-0.0003009603347022043
7.75025e-06	-0.00034965677840663315
7.75050e-06	-0.0003965320421254158
7.75075e-06	-0.00044123686634280014
7.75100e-06	-0.0004834220166418748
7.75125e-06	-0.0005227382781627486
7.75150e-06	-0.0005588657697579775
7.75175e-06	-0.0005916112320381389
7.75200e-06	-0.0006209532318707918
7.75225e-06	-0.0006469132197422865
7.75250e-06	-0.0006694420990812534
7.75275e-06	-0.0006884514262753374
7.75300e-06	-0.0007038522329167556
7.75325e-06	-0.0007155555736958413
7.75350e-06	-0.0007234908592399284
7.75375e-06	-0.0007268390625182538
7.75400e-06	-0.000727249863085152
7.75425e-06	-0.000724450995597757
7.75450e-06	-0.0007179682628826938
7.75475e-06	-0.0007084250169569716
7.75500e-06	-0.0006953690968216975
7.75525e-06	-0.0006793963844055223
7.75550e-06	-0.0006600759520759719
7.75575e-06	-0.0006381027127029585
7.75600e-06	-0.0006130847399003847
7.75625e-06	-0.0005858016379794202
7.75650e-06	-0.0005559187561890207
7.75675e-06	-0.0005241058185812178
7.75700e-06	-0.0004900776782188656
7.75725e-06	-0.0004548070280058646
7.75750e-06	-0.00041739851068027463
7.75775e-06	-0.00037857329535886464
7.75800e-06	-0.00033858805678709805
7.75825e-06	-0.0002977099706404958
7.75850e-06	-0.0002561888568576963
7.75875e-06	-0.00021426483705535163
7.75900e-06	-0.0001721778537599184
7.75925e-06	-0.0001301678642805083
7.75950e-06	-8.847929410738534e-05
7.75975e-06	-4.737605911429613e-05
7.76000e-06	-7.1484999478693075e-06
7.76025e-06	3.190648749752015e-05
7.76050e-06	6.95029091547192e-05
7.76075e-06	0.00010536086058011246
7.76100e-06	0.00013920054865371802
7.76125e-06	0.0001707422156924939
7.76150e-06	0.00019955196054921462
7.76175e-06	0.00022465103132925554
7.76200e-06	0.0002446233843321142
7.76225e-06	0.00025849586429812246
7.76250e-06	0.0002660877123605078
7.76275e-06	0.0002675245899091498
7.76300e-06	0.0002629356888474987
7.76325e-06	0.0002524501604261592
7.76350e-06	0.0002361006403234569
7.76375e-06	0.00021357852169206264
7.76400e-06	0.00018430130289365506
7.76425e-06	0.00014796397003956848
7.76450e-06	0.00010475787450178379
7.76475e-06	5.5066320606467275e-05
7.76500e-06	-7.252315457192003e-07
7.76525e-06	-6.223132499142398e-05
7.76550e-06	-0.0001291270085735151
7.76575e-06	-0.0002013010934879119
7.76600e-06	-0.0002788139197348922
7.76625e-06	-0.00036155202412080606
7.76650e-06	-0.00044909103654374295
7.76675e-06	-0.0005408863455773412
7.76700e-06	-0.0006370608361792131
7.76725e-06	-0.0007358298653159602
7.76750e-06	-0.0008368868297479529
7.76775e-06	-0.0009405697496190149
7.76800e-06	-0.0010459429555423822
7.76825e-06	-0.0011532561708085683
7.76850e-06	-0.0012612450614469767
7.76875e-06	-0.0013700094519081235
7.76900e-06	-0.0014782464681334952
7.76925e-06	-0.0015858781957209269
7.76950e-06	-0.0016918551406348938
7.76975e-06	-0.001795932824862271
7.77000e-06	-0.0018974150765902575
7.77025e-06	-0.0019959184459625956
7.77050e-06	-0.0020906247154223517
7.77075e-06	-0.0021809729004617965
7.77100e-06	-0.0022662044252764113
7.77125e-06	-0.002345563353181971
7.77150e-06	-0.0024186021376261004
7.77175e-06	-0.0024843870390066393
7.77200e-06	-0.002543300003955172
7.77225e-06	-0.0025943257708341467
7.77250e-06	-0.002638238449323953
7.77275e-06	-0.002673987149935246
7.77300e-06	-0.0027023496842602194
7.77325e-06	-0.002722234818212189
7.77350e-06	-0.0027345333950513765
7.77375e-06	-0.0027381245748990817
7.77400e-06	-0.00273433739378354
7.77425e-06	-0.0027220817707781677
7.77450e-06	-0.0027028501945716415
7.77475e-06	-0.002675612036062414
7.77500e-06	-0.002643381072626388
7.77525e-06	-0.0026022186163173924
7.77550e-06	-0.0025542883515459083
7.77575e-06	-0.002499865428425847
7.77600e-06	-0.002439323773917563
7.77625e-06	-0.002373098284824245
7.77650e-06	-0.0023016239836914274
7.77675e-06	-0.0022253268582063837
7.77700e-06	-0.002144632522784674
7.77725e-06	-0.0020599667002506638
7.77750e-06	-0.0019717625011388584
7.77775e-06	-0.0018804892872187702
7.77800e-06	-0.0017866782712795504
7.77825e-06	-0.0016908988936080605
7.77850e-06	-0.0015937204282372994
7.77875e-06	-0.0014957066203659215
7.77900e-06	-0.0013974210987792363
7.77925e-06	-0.0012994273216436062
7.77950e-06	-0.0012022932842123495
7.77975e-06	-0.0011066097313119168
7.78000e-06	-0.0010130060779741862
7.78025e-06	-0.0009221356956292804
7.78050e-06	-0.0008346518633490501
7.78075e-06	-0.0007512042799554325
7.78100e-06	-0.000672442426527767
7.78125e-06	-0.0005990157299434734
7.78150e-06	-0.0005314790508362102
7.78175e-06	-0.00047000603108172695
7.78200e-06	-0.0004143207785879093
7.78225e-06	-0.00036415986755783603
7.78250e-06	-0.00031958271984295445
7.78275e-06	-0.0002807982059252268
7.78300e-06	-0.0002480170570943117
7.78325e-06	-0.000221449933650066
7.78350e-06	-0.00020124823199814103
7.78375e-06	-0.00018732448376472944
7.78400e-06	-0.00017930971318236934
7.78425e-06	-0.00017684275077659603
7.78450e-06	-0.00017976464926211655
7.78475e-06	-0.0001880101264312902
7.78500e-06	-0.0002015150394437935
7.78525e-06	-0.00022021519402697418
7.78550e-06	-0.00024400925664225506
7.78575e-06	-0.00027264630987792955
7.78600e-06	-0.00030569909958608156
7.78625e-06	-0.00034274528659318987
7.78650e-06	-0.0003834892683770887
7.78675e-06	-0.0004276940801606167
7.78700e-06	-0.0004751234977005173
7.78725e-06	-0.0005261409710892997
7.78750e-06	-0.0005793762134654037
7.78775e-06	-0.0006345929780062938
7.78800e-06	-0.000692084015302425
7.78825e-06	-0.0007507372597682911
7.78850e-06	-0.0008107244161869681
7.78875e-06	-0.000871216764004674
7.78900e-06	-0.000932288940327015
7.78925e-06	-0.0009932186830556682
7.78950e-06	-0.0010539849490160784
7.78975e-06	-0.0011138231810467617
7.79000e-06	-0.0011725962711779442
7.79025e-06	-0.0012295635402167092
7.79050e-06	-0.0012844581956939648
7.79075e-06	-0.0013367711321917077
7.79100e-06	-0.0013861209258903464
7.79125e-06	-0.001432126789140504
7.79150e-06	-0.0014742946888047096
7.79175e-06	-0.0015124872941184257
7.79200e-06	-0.0015461172940801297
7.79225e-06	-0.0015755025805393988
7.79250e-06	-0.0016000160384411746
7.79275e-06	-0.0016201456963217608
7.79300e-06	-0.0016352438904477494
7.79325e-06	-0.0016458243473786189
7.79350e-06	-0.0016512196154687064
7.79375e-06	-0.0016520452734879747
7.79400e-06	-0.0016476262060790702
7.79425e-06	-0.001638812362413449
7.79450e-06	-0.0016249544571262005
7.79475e-06	-0.001606958212963873
7.79500e-06	-0.0015842122306857346
7.79525e-06	-0.0015575876533358197
7.79550e-06	-0.0015265114562892437
7.79575e-06	-0.0014918676846095759
7.79600e-06	-0.0014531292639107841
7.79625e-06	-0.0014119920343884805
7.79650e-06	-0.00136667013170437
7.79675e-06	-0.0013184000570444178
7.79700e-06	-0.0012674530501007768
7.79725e-06	-0.001214100474987932
7.79750e-06	-0.0011586151593194558
7.79775e-06	-0.0011012814212819529
7.79800e-06	-0.0010424109378553833
7.79825e-06	-0.00098234356534291
7.79850e-06	-0.0009214318136419445
7.79875e-06	-0.0008600299616777938
7.79900e-06	-0.0007984922381774015
7.79925e-06	-0.0007371727785501788
7.79950e-06	-0.0006764266667678454
7.79975e-06	-0.0006166161734165161
7.80000e-06	-0.0005581207039765487
7.80025e-06	-0.0005013373005653782
7.80050e-06	-0.0004466708438098699
7.80075e-06	-0.0003945272759395923
7.80100e-06	-0.0003453125080772173
7.80125e-06	-0.00029943238359194746
7.80150e-06	-0.0002571353352717639
7.80175e-06	-0.00021807381561421982
7.80200e-06	-0.00018130105627361931
7.80225e-06	-0.00014610423203688434
7.80250e-06	-0.00011244217930898969
7.80275e-06	-8.055423311437145e-05
7.80300e-06	-5.068303628412379e-05
7.80325e-06	-2.3071171843392648e-05
7.80350e-06	2.1374032214387213e-06
7.80375e-06	2.5172061064207607e-05
7.80400e-06	4.663745365434401e-05
7.80425e-06	6.699166583569142e-05
7.80450e-06	8.627203602440022e-05
7.80475e-06	0.00010434018958820837
7.80500e-06	0.00012105570337473138
7.80525e-06	0.00013627820860854264
7.80550e-06	0.0001499291171055177
7.80575e-06	0.00016216368734598173
7.80600e-06	0.0001733722406729922
7.80625e-06	0.00018385325261614127
7.80650e-06	0.00019364161469926825
7.80675e-06	0.00020245613504912225
7.80700e-06	0.00021060203525943272
7.80725e-06	0.00021787197090404245
7.80750e-06	0.0002241365267541087
7.80775e-06	0.00022973746754107686
7.80800e-06	0.00023457675060601594
7.80825e-06	0.00023906462475110918
7.80850e-06	0.00024314917273270134
7.80875e-06	0.0002467345368850418
7.80900e-06	0.00024974696766157334
7.80925e-06	0.0002527593984380844
7.80950e-06	0.00025523356095330486
7.80975e-06	0.00025708993131668935
7.81000e-06	0.0002589463016800613
7.81025e-06	0.00026048488531919893
7.81050e-06	0.0002620121495677787
7.81075e-06	0.00026348408003891763
7.81100e-06	0.00026485027707711295
7.81125e-06	0.00026612055592914506
7.81150e-06	0.0002670464603222715
7.81175e-06	0.00026651725799080734
7.81200e-06	0.0002626570021733033
7.81225e-06	0.00025413874937484023
7.81250e-06	0.00024077135590836864
7.81275e-06	0.0002228154905887911
7.81300e-06	0.0002005370372338643
7.81325e-06	0.0001742018962152373
7.81350e-06	0.0001439274015239929
7.81375e-06	0.00010929080316241839
7.81400e-06	6.93900727030597e-05
7.81425e-06	2.3667163312366582e-05
7.81450e-06	-2.7724483399842064e-05
7.81475e-06	-8.434841238984634e-05
7.81500e-06	-0.00014576493589027882
7.81525e-06	-0.0002115343891781501
7.81550e-06	-0.00028131016349056836
7.81575e-06	-0.00035508400895663587
7.81600e-06	-0.00043314786912481546
7.81625e-06	-0.0005155781116778805
7.81650e-06	-0.0006027405894963792
7.81675e-06	-0.0006927272758583328
7.81700e-06	-0.0007851435451545492
7.81725e-06	-0.000880348344590582
7.81750e-06	-0.0009774955492366818
7.81775e-06	-0.0010768721305348167
7.81800e-06	-0.001176248711833625
7.81825e-06	-0.001276907136750756
7.81850e-06	-0.0013790367851896502
7.81875e-06	-0.001481000055581719
7.81900e-06	-0.0015827723671909574
7.81925e-06	-0.001683248642863653
7.81950e-06	-0.0017822374059203484
7.81975e-06	-0.0018790986222290387
7.82000e-06	-0.0019735179674880655
7.82025e-06	-0.0020649887435903523
7.82050e-06	-0.002153075328173277
7.82075e-06	-0.002235726228026008
7.82100e-06	-0.002312138373694752
7.82125e-06	-0.0023885505193640133
7.82150e-06	-0.0024569405275413486
7.82175e-06	-0.002516123205579823
7.82200e-06	-0.002575305883618698
7.82225e-06	-0.0026272979801475727
7.82250e-06	-0.0026710371568130194
7.82275e-06	-0.0027147763334787627
7.82300e-06	-0.002750642649454517
7.82325e-06	-0.002777472966286003
7.82350e-06	-0.0028043032831176714
7.82375e-06	-0.0028234857204667845
7.82400e-06	-0.002833890378660127
7.82425e-06	-0.0028442950368535403
7.82450e-06	-0.002848081359344875
7.82475e-06	-0.0028442715515227756
7.82500e-06	-0.00284046174370065
7.82525e-06	-0.0028312134686954574
7.82550e-06	-0.002815723245973218
7.82575e-06	-0.002796386083101841
7.82600e-06	-0.002772633632158848
7.82625e-06	-0.0027457737412142956
7.82650e-06	-0.002715347316286286
7.82675e-06	-0.002682811882252468
7.82700e-06	-0.002646553123483476
7.82725e-06	-0.0026075734080264713
7.82750e-06	-0.0025660701341886512
7.82775e-06	-0.0025223651226666598
7.82800e-06	-0.002476917586717044
7.82825e-06	-0.002430165408482911
7.82850e-06	-0.0023824277941253023
7.82875e-06	-0.002333971459153933
7.82900e-06	-0.0022850627778415807
7.82925e-06	-0.0022359679840212054
7.82950e-06	-0.0021869730576641526
7.82975e-06	-0.002138441461855138
7.83000e-06	-0.002090823158302561
7.83025e-06	-0.0020445545482556875
7.83050e-06	-0.0019999975455607904
7.83075e-06	-0.001957481513187811
7.83100e-06	-0.0019173352240219688
7.83125e-06	-0.0018798874189154412
7.83150e-06	-0.0018462868632937476
7.83175e-06	-0.001815339014139485
7.83200e-06	-0.0017887120074855248
7.83225e-06	-0.0017670442057104866
7.83250e-06	-0.0017453764039355953
7.83275e-06	-0.0017291527607242126
7.83300e-06	-0.0017191775974581274
7.83325e-06	-0.0017092024341921097
7.83350e-06	-0.001704864737708202
7.83375e-06	-0.0017069973887938665
7.83400e-06	-0.0017091300398795165
7.83425e-06	-0.001716758957286872
7.83450e-06	-0.001730696160810917
7.83475e-06	-0.0017446333643348674
7.83500e-06	-0.0017635711239008566
7.83525e-06	-0.0017882482229400138
7.83550e-06	-0.001812925321979004
7.83575e-06	-0.0018420364226337095
7.83600e-06	-0.001876236605439168
7.83625e-06	-0.001910436788244395
7.83650e-06	-0.0019482250346533863
7.83675e-06	-0.001990131446102501
7.83700e-06	-0.002032037857551331
7.83725e-06	-0.0020765552940748013
7.83750e-06	-0.0021240695091865338
7.83775e-06	-0.0021715837242982663
7.83800e-06	-0.002220656329956552
7.83825e-06	-0.0022715175631810238
7.83850e-06	-0.002322378796405495
7.83875e-06	-0.002373568070008612
7.83900e-06	-0.00242513384876078
7.83925e-06	-0.002476699627512948
7.83950e-06	-0.0025273241059968455
7.83975e-06	-0.0025768682162701667
7.84000e-06	-0.0026264123265434883
7.84025e-06	-0.0026741787925794857
7.84050e-06	-0.0027199049847632783
7.84075e-06	-0.002763465145621155
7.84100e-06	-0.002804539265129143
7.84125e-06	-0.002842785797986773
7.84150e-06	-0.0028777869958166156
7.84175e-06	-0.0029079469420784454
7.84200e-06	-0.0029325503890239935
7.84225e-06	-0.0029571538359695415
7.84250e-06	-0.002975133888208888
7.84275e-06	-0.0029855120037089247
7.84300e-06	-0.002995890119208961
7.84325e-06	-0.002999525049976835
7.84350e-06	-0.002995420556170057
7.84375e-06	-0.002991316062363279
7.84400e-06	-0.002980178755752364
7.84425e-06	-0.00296096960676916
7.84450e-06	-0.002941760457785956
7.84475e-06	-0.0029170532356942187
7.84500e-06	-0.002886035653761972
7.84525e-06	-0.002851045325052474
7.84550e-06	-0.002811495314937834
7.84575e-06	-0.0027691333288182973
7.84600e-06	-0.002721745556545559
7.84625e-06	-0.0026706179653401213
7.84650e-06	-0.0026160446743231365
7.84675e-06	-0.0025583558977054746
7.84700e-06	-0.0024978826122555083
7.84725e-06	-0.0024349554535037766
7.84750e-06	-0.002369895376700856
7.84775e-06	-0.0023029926737353156
7.84800e-06	-0.0022345239732273056
7.84825e-06	-0.0021648153819743337
7.84850e-06	-0.002094256987277816
7.84875e-06	-0.002023261333006555
7.84900e-06	-0.001952241298110533
7.84925e-06	-0.001881609629109738
7.84950e-06	-0.001811772847114563
7.84975e-06	-0.0017431181150644288
7.85000e-06	-0.0016760244602701787
7.85025e-06	-0.0016109015789022942
7.85050e-06	-0.0015481991937439596
7.85075e-06	-0.0014883812278611618
7.85100e-06	-0.0014319115341000607
7.85125e-06	-0.00137925402751737
7.85150e-06	-0.001331864603834356
7.85175e-06	-0.0012880313247837663
7.85200e-06	-0.001248255133360505
7.85225e-06	-0.0012131354247330425
7.85250e-06	-0.0011821557081880376
7.85275e-06	-0.0011559276272187337
7.85300e-06	-0.0011340783866346444
7.85325e-06	-0.0011172549174392433
7.85350e-06	-0.0011049434669519022
7.85375e-06	-0.0010978106419758807
7.85400e-06	-0.0010948962688389359
7.85425e-06	-0.0010968235826994484
7.85450e-06	-0.001102719252842481
7.85475e-06	-0.0011131695652446159
7.85500e-06	-0.0011274358946223649
7.85525e-06	-0.0011460820203041263
7.85550e-06	-0.0011683255055113886
7.85575e-06	-0.0011946978250642574
7.85600e-06	-0.0012248615350763173
7.85625e-06	-0.0012593767765477469
7.85650e-06	-0.0012938920180189427
7.85675e-06	-0.0013320887340182242
7.85700e-06	-0.0013745108265379247
7.85725e-06	-0.001416932919057338
7.85750e-06	-0.0014620481912884563
7.85775e-06	-0.001510254534293557
7.85800e-06	-0.0015584608772983314
7.85825e-06	-0.0016080387347957544
7.85850e-06	-0.0016591907346890423
7.85875e-06	-0.0017103427345819835
7.85900e-06	-0.0017615996004346874
7.85925e-06	-0.001812976825170603
7.85950e-06	-0.0018643540499061705
7.85975e-06	-0.0019148208162408347
7.86000e-06	-0.0019642426128160233
7.86025e-06	-0.0020121362464030753
7.86050e-06	-0.002058275945809997
7.86075e-06	-0.002102236550816337
7.86100e-06	-0.0021436961214548913
7.86125e-06	-0.002182301166238889
7.86150e-06	-0.0022176299567843527
7.86175e-06	-0.002249013156572835
7.86200e-06	-0.002275867843011872
7.86225e-06	-0.002296771910222843
7.86250e-06	-0.0023108462121907976
7.86275e-06	-0.0023249205141588473
7.86300e-06	-0.0023318134492380307
7.86325e-06	-0.002330464040437621
7.86350e-06	-0.002329114631637221
7.86375e-06	-0.0023202253531279518
7.86400e-06	-0.002302682262620524
7.86425e-06	-0.0022851391721132154
7.86450e-06	-0.0022613505223498236
7.86475e-06	-0.0022303935928002488
7.86500e-06	-0.002194932287255224
7.86525e-06	-0.002154301128046509
7.86550e-06	-0.0021105423650866297
7.86575e-06	-0.002061174189670129
7.86600e-06	-0.0020075170382071604
7.86625e-06	-0.001949757981616685
7.86650e-06	-0.0018882218590365303
7.86675e-06	-0.0018232838530239314
7.86700e-06	-0.0017553196278147709
7.86725e-06	-0.0016847049720683932
7.86750e-06	-0.0016118010394621442
7.86775e-06	-0.0015369210194302483
7.86800e-06	-0.0014603500266008403
7.86825e-06	-0.0013824335031105794
7.86850e-06	-0.0013036030940191633
7.86875e-06	-0.0012243219296568133
7.86900e-06	-0.001145053521630335
7.86925e-06	-0.0010662612651328267
7.86950e-06	-0.0009883994953428256
7.86975e-06	-0.000911892463072979
7.87000e-06	-0.0008371467297105735
7.87025e-06	-0.0007646066957701055
7.87050e-06	-0.0006947706421313658
7.87075e-06	-0.0006281565738590507
7.87100e-06	-0.0005652827408605004
7.87125e-06	-0.0005066672615367393
7.87150e-06	-0.00045286806993518453
7.87175e-06	-0.0004045584200805015
7.87200e-06	-0.00036242608885251226
7.87225e-06	-0.00032690371409627877
7.87250e-06	-0.00029813045391330047
7.87275e-06	-0.00027614537150092377
7.87300e-06	-0.0002609864533637393
7.87325e-06	-0.00025269161979100225
7.87350e-06	-0.00025132374229726393
7.87375e-06	-0.0002570178332887718
7.87400e-06	-0.00026991804782639466
7.87425e-06	-0.00029000866544315036
7.87450e-06	-0.0003170901184214135
7.87475e-06	-0.0003509001766320488
7.87500e-06	-0.00039117594917836054
7.87525e-06	-0.0004376544694018148
7.87550e-06	-0.0004900884470415188
7.87575e-06	-0.000548275812343816
7.87600e-06	-0.0006120201688123875
7.87625e-06	-0.0006810249971948799
7.87650e-06	-0.0007548786796034727
7.87675e-06	-0.0008339930047729712
7.87700e-06	-0.0009163188062591206
7.87725e-06	-0.0010016799433633314
7.87750e-06	-0.0010905248573526369
7.87775e-06	-0.0011816252115572786
7.87800e-06	-0.0012753142252948288
7.87825e-06	-0.001370370552743523
7.87850e-06	-0.0014669962011824534
7.87875e-06	-0.0015639403772621909
7.87900e-06	-0.0016612501403398374
7.87925e-06	-0.0017578218667687745
7.87950e-06	-0.0018535465188237767
7.87975e-06	-0.001947511504181179
7.88000e-06	-0.00203945684922904
7.88025e-06	-0.0021285532784986057
7.88050e-06	-0.0022143798924383227
7.88075e-06	-0.0022949089867098016
7.88100e-06	-0.0023693579043917736
7.88125e-06	-0.0024438068220732413
7.88150e-06	-0.0025119479908674762
7.88175e-06	-0.002572849502328019
7.88200e-06	-0.0026297863433540963
7.88225e-06	-0.0026821727725149297
7.88250e-06	-0.002734559201675763
7.88275e-06	-0.00278201154651792
7.88300e-06	-0.002823800844153277
7.88325e-06	-0.0028655901417886332
7.88350e-06	-0.002901961244403249
7.88375e-06	-0.002932113666468785
7.88400e-06	-0.0029622660885343212
7.88425e-06	-0.0029885095666613674
7.88450e-06	-0.003010266592465206
7.88475e-06	-0.003032023618269044
7.88500e-06	-0.003053780644072735
7.88525e-06	-0.003066218195607374
7.88550e-06	-0.0030783237925243903
7.88575e-06	-0.0030904293894413242
7.88600e-06	-0.0030994220563056547
7.88625e-06	-0.003104841888028642
7.88650e-06	-0.003110261719751592
7.88675e-06	-0.0031116898812553464
7.88700e-06	-0.003108536642152419
7.88725e-06	-0.0031053834030495137
7.88750e-06	-0.0031022301639465864
7.88775e-06	-0.003099076924843659
7.88800e-06	-0.0030959236857407537
7.88825e-06	-0.0030927704466378264
7.88850e-06	-0.0030896172075348997
7.88875e-06	-0.0030864639684319937
7.88900e-06	-0.0030781887418453962
7.88925e-06	-0.0030697310728432146
7.88950e-06	-0.003061273403841033
7.88975e-06	-0.0030528157348389084
7.89000e-06	-0.0030443580658367267
7.89025e-06	-0.0030359003968345446
7.89050e-06	-0.00302744272783242
7.89075e-06	-0.0030189850588302385
7.89100e-06	-0.0030110816666000027
7.89125e-06	-0.0030038144401350057
7.89150e-06	-0.0029965427689721638
7.89175e-06	-0.0029892659964507276
7.89200e-06	-0.002980040007131513
7.89225e-06	-0.0029685768232218584
7.89250e-06	-0.0029542414972782427
7.89275e-06	-0.002936609698295742
7.89300e-06	-0.002918977899313122
7.89325e-06	-0.002898408444173793
