Time(s)	Current(A)
1.45000e-05	-0.002635269632340828
1.45003e-05	-0.002617333625734012
1.45005e-05	-0.002601801451163018
1.45008e-05	-0.002586269276592024
1.45010e-05	-0.002570737102021135
1.45013e-05	-0.002555204927450141
1.45015e-05	-0.0025402092652580662
1.45018e-05	-0.0025299539643949135
1.45020e-05	-0.002519698663531691
1.45023e-05	-0.002509443362668468
1.45025e-05	-0.002499188061805315
1.45028e-05	-0.002488932760942092
1.45030e-05	-0.0024815631543851266
1.45033e-05	-0.00247610397569497
1.45035e-05	-0.0024706447970047766
1.45038e-05	-0.002465185618314583
1.45040e-05	-0.0024597264396244265
1.45043e-05	-0.0024542672609342325
1.45045e-05	-0.002448808082244039
1.45048e-05	-0.0024433489035538825
1.45050e-05	-0.002439113460504488
1.45053e-05	-0.0024371123601155675
1.45055e-05	-0.002435111259726661
1.45058e-05	-0.0024331101593377405
1.45060e-05	-0.00243110905894882
1.45063e-05	-0.002429107958559913
1.45065e-05	-0.0024271068581709927
1.45068e-05	-0.0024251057577820727
1.45070e-05	-0.002423300196608204
1.45073e-05	-0.002422168211086257
1.45075e-05	-0.009338394598265156
1.45078e-05	-0.018103245485202778
1.45080e-05	-0.015965494088089765
1.45083e-05	-0.013633455046563828
1.45085e-05	-0.00792805157057792
1.45088e-05	-0.001075473752899276
1.45090e-05	-0.0005686280477960918
1.45093e-05	-0.0012968331778748347
1.45095e-05	-0.005294258391926061
1.45098e-05	-0.010780761482481359
1.45100e-05	-0.010237997231413418
1.45103e-05	-0.008391734419438157
1.45105e-05	-0.004861162118009355
1.45108e-05	-0.0010080477706981607
1.45110e-05	0.00022615384068304742
1.45113e-05	-0.000812828126600744
1.45115e-05	-0.003444370359445694
1.45118e-05	-0.006420752107647167
1.45120e-05	-0.00710581076043239
1.45123e-05	-0.0059271245796820885
1.45125e-05	-0.0037744307886098845
1.45128e-05	-0.0014636269670436938
1.45130e-05	-0.0007645841774591246
1.45133e-05	-0.0014869001765096053
1.45135e-05	-0.0032043878740947427
1.45138e-05	-0.005135607685429143
1.45140e-05	-0.005629446856265303
1.45143e-05	-0.004953923159011225
1.45145e-05	-0.0036664639994527354
1.45148e-05	-0.002278154822273288
1.45150e-05	-0.001897540291911813
1.45153e-05	-0.002405178045879389
1.45155e-05	-0.0035339240103822163
1.45158e-05	-0.004794117805381781
1.45160e-05	-0.005151387923506925
1.45163e-05	-0.004773529504954066
1.45165e-05	-0.004009586830828523
1.45168e-05	-0.0031795335191407235
1.45170e-05	-0.0029775363973101945
1.45173e-05	-0.003328516054689602
1.45175e-05	-0.004064877520722823
1.45178e-05	-0.004879657797554442
1.45180e-05	-0.005124727469488051
1.45183e-05	-0.004905012547255482
1.45185e-05	-0.004438966996908332
1.45188e-05	-0.003927020674415248
1.45190e-05	-0.0038049395983357696
1.45193e-05	-0.004027420180473342
1.45195e-05	-0.004490515753478353
1.45198e-05	-0.0050021184218189615
1.45200e-05	-0.005156290848404049
1.45203e-05	-0.005018822291343821
1.45205e-05	-0.004726605966249382
1.45208e-05	-0.004405233054695431
1.45210e-05	-0.004327687558902588
1.45213e-05	-0.004465602892555407
1.45215e-05	-0.004753881485953289
1.45218e-05	-0.005072209286833424
1.45220e-05	-0.005166347395961724
1.45223e-05	-0.005077554381069913
1.45225e-05	-0.004891622752440027
1.45228e-05	-0.0046872577038348
1.45230e-05	-0.0046354792971508765
1.45233e-05	-0.004718534972641317
1.45235e-05	-0.004895666553929394
1.45238e-05	-0.005091533147557426
1.45240e-05	-0.0051469143961565544
1.45243e-05	-0.005087695289912056
1.45245e-05	-0.00496765286199886
1.45248e-05	-0.004836119727228545
1.45250e-05	-0.004800248421420416
1.45253e-05	-0.004848938723153115
1.45255e-05	-0.004956681613250055
1.45258e-05	-0.005076309075528631
1.45260e-05	-0.005108118311089494
1.45263e-05	-0.005068358800344234
1.45265e-05	-0.0049907507787728955
1.45268e-05	-0.0049062262922890685
1.45270e-05	-0.004881931092110705
1.45273e-05	-0.0049109359960306225
1.45275e-05	-0.004977286907976271
1.45278e-05	-0.005051463483210006
1.45280e-05	-0.005071042794872576
1.45283e-05	-0.005046237206099422
1.45285e-05	-0.004998187845534571
1.45288e-05	-0.004946096841816627
1.45290e-05	-0.004930966785551635
1.45293e-05	-0.0049467730116146665
1.45295e-05	-0.004982660872613253
1.45298e-05	-0.0050201764239973705
1.45300e-05	-0.005020405758308662
1.45303e-05	-0.0049899360833761475
1.45305e-05	-0.004942198464495779
1.45308e-05	-0.004889408274187493
1.45310e-05	-0.004857435328839747
1.45313e-05	-0.004842690544151058
1.45315e-05	-0.0048385599076033025
1.45318e-05	-0.0048336695224822515
1.45320e-05	-0.004803831655280514
1.45323e-05	-0.004753360911107275
1.45325e-05	-0.004690858699782563
1.45328e-05	-0.004624163584424497
1.45330e-05	-0.0045696666647157625
1.45333e-05	-0.004525304851524672
1.45335e-05	-0.004487121216039466
1.45338e-05	-0.004448177722480594
1.45340e-05	-0.004393509779805217
1.45343e-05	-0.004326008105356189
1.45345e-05	-0.004251248045605552
1.45348e-05	-0.0041743266769448135
1.45350e-05	-0.004105698015118562
1.45353e-05	-0.004044360460220927
1.45355e-05	-0.0039885514205983815
1.45358e-05	-0.003931888266157825
1.45360e-05	-0.003867618141862839
1.45363e-05	-0.0037968792310034472
1.45365e-05	-0.003723283327190107
1.45368e-05	-0.0036504932837039005
1.45370e-05	-0.0035849329656616026
1.45373e-05	-0.0035262032090542027
1.45375e-05	-0.003472912275506053
1.45378e-05	-0.0034219314449409582
1.45380e-05	-0.0033706701286909807
1.45383e-05	-0.003317804667870744
1.45385e-05	-0.003270095263069415
1.45388e-05	-0.0032223858582684094
1.45390e-05	-0.0031758969287091782
1.45393e-05	-0.0031396807183859724
1.45395e-05	-0.003107413417974132
1.45398e-05	-0.003075045992077103
1.45400e-05	-0.003041753847276054
1.45403e-05	-0.003007820679768702
1.45405e-05	-0.00297660988720733
1.45408e-05	-0.0029453990946459578
1.45410e-05	-0.0029148967579155876
1.45413e-05	-0.0028903134363422343
1.45415e-05	-0.0028676694144834625
1.45418e-05	-0.0028450253926248443
1.45420e-05	-0.002822224500617736
1.45423e-05	-0.002798351284485483
1.45425e-05	-0.0027759581764505077
1.45428e-05	-0.00275356506841538
1.45430e-05	-0.002731595005192379
1.45433e-05	-0.0027131560167451695
1.45435e-05	-0.00269584792996756
1.45438e-05	-0.0026785398431898332
1.45440e-05	-0.0026611303823723576
1.45443e-05	-0.002643031560271413
1.45445e-05	-0.002625918119911781
1.45448e-05	-0.002608804679552149
1.45450e-05	-0.0025919708121410878
1.45453e-05	-0.0025774827058873888
1.45455e-05	-0.0025638398779071685
1.45458e-05	-0.0025501970499270405
1.45460e-05	-0.00253655422194682
1.45463e-05	-0.0025230671167360734
1.45465e-05	-0.0025108278500835424
1.45468e-05	-0.0024985885834309285
1.45470e-05	-0.0024863493167783146
1.45473e-05	-0.00247441549614357
1.45475e-05	-0.0024649292772291804
1.45478e-05	-0.002455443058314791
1.45480e-05	-0.002445956839400466
1.45483e-05	-0.0024366672291201313
1.45485e-05	-0.0024289530842345913
1.45488e-05	-0.0024212389393491037
1.45490e-05	-0.0024139615970578607
1.45493e-05	-0.0024101844437335184
1.45495e-05	-0.0024064072904092016
1.45498e-05	-0.0024026301370848597
1.45500e-05	-0.0023992641802178436
1.45503e-05	-0.0023991932250791905
1.45505e-05	-0.002399122269940537
1.45508e-05	-0.0023990513148018835
1.45510e-05	-0.0023996543954206604
1.45513e-05	-0.0024056586631032977
1.45515e-05	-0.002411662930785935
1.45518e-05	-0.0024176671984685724
1.45520e-05	-0.0024236714661511685
1.45523e-05	-0.002429675733833806
1.45525e-05	-0.002435680001516443
1.45528e-05	-0.0024416842691990398
1.45530e-05	-0.002451271447700227
1.45533e-05	-0.0024631402225911373
1.45535e-05	-0.002475008997481967
1.45538e-05	-0.0024868777723728776
1.45540e-05	-0.0024987465472637877
1.45543e-05	-0.002510615322154618
1.45545e-05	-0.002522484097045528
1.45548e-05	-0.0025346628911705033
1.45550e-05	-0.0025493259331388347
1.45553e-05	-0.0025639889751072655
1.45555e-05	-0.002578652017075696
1.45558e-05	-0.0025933150590440276
1.45560e-05	-0.0026079781010124583
1.45563e-05	-0.002622641142980889
1.45565e-05	-0.0026371781940831432
1.45568e-05	-0.002650705654479433
1.45570e-05	-0.002664233114875723
1.45573e-05	-0.002677760575271921
1.45575e-05	-0.002691288035668211
1.45578e-05	-0.002704815496064501
1.45580e-05	-0.0027183429564606987
1.45583e-05	-0.0027315010168484123
1.45585e-05	-0.002741698999040452
1.45588e-05	-0.002751896981232422
1.45590e-05	-0.002761637544607344
1.45593e-05	-0.0027677127169820036
1.45595e-05	-0.002773787889356622
1.45598e-05	-0.0027793081436997824
1.45600e-05	-0.002780381725797673
1.45603e-05	-0.002781455307895563
1.45605e-05	-0.002781679231225519
1.45608e-05	-0.002775094664207666
1.45610e-05	-0.0027685100971898127
1.45613e-05	-0.002761925530172004
1.45615e-05	-0.002755340963154151
1.45618e-05	-0.0027487563961362976
1.45620e-05	-0.00274109569111934
1.45623e-05	-0.002724811671122599
1.45625e-05	-0.002708527651125858
1.45628e-05	-0.0026922436311292274
1.45630e-05	-0.0026759596111324865
1.45633e-05	-0.0026596755911357456
1.45635e-05	-0.0026426429480095647
1.45638e-05	-0.002619611433871581
1.45640e-05	-0.0025965799197335978
1.45643e-05	-0.0025735484055957707
1.45645e-05	-0.0025505168914577874
1.45648e-05	-0.002527134974287999
1.45650e-05	-0.002500945205601286
1.45653e-05	-0.0024747554369143956
1.45655e-05	-0.0024485656682275048
1.45658e-05	-0.0024223758995407917
1.45660e-05	-0.0023961392248024824
1.45663e-05	-0.002369526682232845
1.45665e-05	-0.0023429930052735726
1.45668e-05	-0.0023170912946590106
1.45670e-05	-0.002291286738829873
1.45673e-05	-0.0022663460795828835
1.45675e-05	-0.002242289579109306
1.45678e-05	-0.0022198359506288715
1.45680e-05	-0.002197382322148589
1.45683e-05	-0.0021770288925130996
1.45685e-05	-0.0021580128687878285
1.45688e-05	-0.0021392916555457897
1.45690e-05	-0.0021229328193022395
1.45693e-05	-0.0021065739830586896
1.45695e-05	-0.002090242615020887
1.45698e-05	-0.002074131355361865
1.45700e-05	-0.0020580200957027337
1.45703e-05	-0.0020420333298739072
1.45705e-05	-0.00202704415869686
1.45708e-05	-0.002012054987519711
1.45710e-05	-0.001997026429330872
1.45713e-05	-0.001981682254921521
1.45715e-05	-0.001966338080512067
1.45718e-05	-0.0019509939061026123
1.45720e-05	-0.0019356497316932618
1.45723e-05	-0.0019203055572838072
1.45725e-05	-0.0019046025700460293
1.45728e-05	-0.001888671090921277
1.45730e-05	-0.0018727396117964167
1.45733e-05	-0.0018568081326715564
1.45735e-05	-0.0018408766535468039
1.45738e-05	-0.00182487774424308
1.45740e-05	-0.0018083385030558056
1.45743e-05	-0.001791799261868643
1.45745e-05	-0.0017752912582310106
1.45748e-05	-0.0017590335674995746
1.45750e-05	-0.0017427838847404533
1.45753e-05	-0.00172659837150855
1.45755e-05	-0.001710425593535669
1.45758e-05	-0.0016943548658111959
1.45760e-05	-0.0016783218465944362
1.45763e-05	-0.0016626317436475796
1.45765e-05	-0.0016473196643071583
1.45768e-05	-0.0016324739284185067
1.45770e-05	-0.0016181072630234588
1.45773e-05	-0.0016041739590133793
1.45775e-05	-0.0015906897194936612
1.45778e-05	-0.001577742474733863
1.45780e-05	-0.0015654317596635824
1.45783e-05	-0.0015538580148734612
1.45785e-05	-0.0015431234372002371
1.45788e-05	-0.0015333613900856166
1.45790e-05	-0.0015248403751269251
1.45793e-05	-0.0015179017756817587
1.45795e-05	-0.0015127154062907515
1.45798e-05	-0.0015092879979862021
1.45800e-05	-0.0015076000704905411
1.45803e-05	-0.001507632764521646
1.45805e-05	-0.0015094669071351828
1.45808e-05	-0.0015135979048302257
1.45810e-05	-0.0015181488431707936
1.45813e-05	-0.0015260648522243546
1.45815e-05	-0.0015344928419394838
1.45818e-05	-0.0015470234379349696
1.45820e-05	-0.0015595540339303706
1.45823e-05	-0.0015726201049444967
1.45825e-05	-0.0015899770473522836
1.45828e-05	-0.0016073339897599529
1.45830e-05	-0.0016251756426700948
1.45833e-05	-0.0016469013804702956
1.45835e-05	-0.0016686271182703492
1.45838e-05	-0.0016907389651861274
1.45840e-05	-0.0017159447838119154
1.45843e-05	-0.0017411506024375325
1.45845e-05	-0.0017665775594934978
1.45848e-05	-0.0017937765442468383
1.45850e-05	-0.0018210988711460038
1.45853e-05	-0.0018494095640151306
1.45855e-05	-0.0018777831905044922
1.45858e-05	-0.001906661117029025
1.45860e-05	-0.001935527102633917
1.45863e-05	-0.0019642974031936168
1.45865e-05	-0.0019929823026046314
1.45868e-05	-0.0020209828650562217
1.45870e-05	-0.0020488343888125063
1.45873e-05	-0.002075491634865725
1.45875e-05	-0.0021018527064975293
1.45878e-05	-0.0021258404716110423
1.45880e-05	-0.002149828236724555
1.45883e-05	-0.0021734022953559147
1.45885e-05	-0.0021936612389062034
1.45888e-05	-0.002213678935835978
1.45890e-05	-0.0022317634740050604
1.45893e-05	-0.002249889524468852
1.45895e-05	-0.002268348221482409
1.45898e-05	-0.0022867984814226245
1.45900e-05	-0.002305181133360957
1.45903e-05	-0.0023235637852992894
1.45905e-05	-0.002341946437237497
1.45908e-05	-0.00236032908917583
1.45910e-05	-0.0023792517125869753
1.45913e-05	-0.002398518189648487
1.45915e-05	-0.00241778466671013
1.45918e-05	-0.0024370511437717722
1.45920e-05	-0.0024565087272149116
1.45923e-05	-0.0024774976853783057
1.45925e-05	-0.0024984866435416994
1.45928e-05	-0.0025194756017049512
1.45930e-05	-0.002540464559868345
1.45933e-05	-0.0025624278185079415
1.45935e-05	-0.002585011511359782
1.45938e-05	-0.002607595204211776
1.45940e-05	-0.0026301788970637696
1.45943e-05	-0.0026528242541717477
1.45945e-05	-0.0026759637396402145
1.45948e-05	-0.0026991032251086817
1.45950e-05	-0.0027222460515375912
1.45953e-05	-0.002745415649769147
1.45955e-05	-0.0027685852480008604
1.45958e-05	-0.0027916962847068846
1.45960e-05	-0.002814338055869281
1.45963e-05	-0.0028369798270318305
1.45965e-05	-0.002859438405067054
1.45968e-05	-0.0028804290189148826
1.45970e-05	-0.0029014196327628535
1.45973e-05	-0.0029221799614405812
1.45975e-05	-0.0029410949677104643
1.45978e-05	-0.0029600099739804757
1.45980e-05	-0.0029787123728941406
1.45983e-05	-0.002995578353843344
1.45985e-05	-0.0030112484897513027
1.45988e-05	-0.003025868637909806
1.45990e-05	-0.003040832464774125
1.45993e-05	-0.003058431516367738
1.45995e-05	-0.0030798088036632066
1.45998e-05	-0.003104844793244559
1.46000e-05	-0.003133362455530935
1.46003e-05	-0.0031657877315347128
1.46005e-05	-0.0031986383212741715
1.46008e-05	-0.0032352335272353965
1.46010e-05	-0.0032752738019874005
1.46013e-05	-0.003321313617047883
1.46015e-05	-0.0033681329565370304
1.46018e-05	-0.003421658236462401
1.46020e-05	-0.0034792754577668396
1.46023e-05	-0.003540541285073464
1.46025e-05	-0.0036050186598799825
1.46028e-05	-0.003672377347826899
1.46030e-05	-0.003742776842059924
1.46033e-05	-0.003816729001802506
1.46035e-05	-0.0038942942447169272
1.46038e-05	-0.003975038589492507
1.46040e-05	-0.004058445980095347
1.46043e-05	-0.004143999739153336
1.46045e-05	-0.004231188668443032
1.46048e-05	-0.004319566872287047
1.46050e-05	-0.004408997245562089
1.46053e-05	-0.0044995609093425775
1.46055e-05	-0.00459105897887647
1.46058e-05	-0.004682980115274694
1.46060e-05	-0.004774763921350654
1.46063e-05	-0.004865848447260489
1.46065e-05	-0.004955675154369203
1.46068e-05	-0.005043727592924762
1.46070e-05	-0.005129680495355407
1.46073e-05	-0.005213347987450773
1.46075e-05	-0.005294366836537006
1.46078e-05	-0.005372179444854994
1.46080e-05	-0.005446196647547069
1.46083e-05	-0.005515828555090443
1.46085e-05	-0.0055804933389647276
1.46088e-05	-0.005639732847257484
1.46090e-05	-0.005692962352885084
1.46093e-05	-0.005736249411245959
1.46095e-05	-0.0057795364696068335
1.46098e-05	-0.005822823527967414
1.46100e-05	-0.00586439787998571
1.46103e-05	-0.005892247963992496
1.46105e-05	-0.005920098047999094
1.46108e-05	-0.005940266312345155
1.46110e-05	-0.005955542796536615
1.46113e-05	-0.005969750087280554
1.46115e-05	-0.005975389711131157
1.46118e-05	-0.005979900176460844
1.46120e-05	-0.005975362462436449
1.46123e-05	-0.0059708247484120845
1.46125e-05	-0.005964978945047424
1.46128e-05	-0.005948651152889658
1.46130e-05	-0.005932323360732002
1.46133e-05	-0.005915131904468775
1.46135e-05	-0.005891019730181336
1.46138e-05	-0.005866325298819775
1.46140e-05	-0.005836965121824378
1.46143e-05	-0.005807082644217402
1.46145e-05	-0.005773014864438199
1.46148e-05	-0.005738531186748585
1.46150e-05	-0.005700714833606324
1.46153e-05	-0.005662650620809168
1.46155e-05	-0.0056226002576410476
1.46158e-05	-0.00558241259649824
1.46160e-05	-0.005541124738459379
1.46163e-05	-0.005499798183832078
1.46165e-05	-0.005458161545488744
1.46168e-05	-0.005416613847301251
1.46170e-05	-0.005375778844864017
1.46173e-05	-0.005335199064249877
1.46175e-05	-0.005296664428572204
1.46178e-05	-0.005258515208845721
1.46180e-05	-0.005223454406371103
1.46183e-05	-0.005188759103246371
1.46185e-05	-0.005157263549330216
1.46188e-05	-0.005128112277608432
1.46190e-05	-0.005100316486483876
1.46193e-05	-0.005072045127642361
1.46195e-05	-0.005042086110231487
1.46198e-05	-0.005011917278783262
1.46200e-05	-0.004980067164318502
1.46203e-05	-0.004948217049853742
1.46205e-05	-0.0049158354987657825
1.46208e-05	-0.004883115529016553
1.46210e-05	-0.004849866121227703
1.46213e-05	-0.004812374217587373
1.46215e-05	-0.004774882313947297
1.46218e-05	-0.004737390410306967
1.46220e-05	-0.00469931020486532
1.46223e-05	-0.0046565158161467075
1.46225e-05	-0.004613721427427804
1.46228e-05	-0.004570927038708901
1.46230e-05	-0.004527500971673077
1.46233e-05	-0.004479013136419799
1.46235e-05	-0.00443052530116652
1.46238e-05	-0.00438203746591357
1.46240e-05	-0.004333549630660292
1.46243e-05	-0.004285061795407013
1.46245e-05	-0.004236245306087332
1.46248e-05	-0.00418479524416506
1.46250e-05	-0.004133345182242789
1.46253e-05	-0.004081895120320865
1.46255e-05	-0.004030445058398593
1.46258e-05	-0.003978994996476321
1.46260e-05	-0.003927703699060834
1.46263e-05	-0.0038776846142744583
1.46265e-05	-0.0038276655294880828
1.46268e-05	-0.003777979649535701
1.46270e-05	-0.0037309638084167098
1.46273e-05	-0.003684268776995946
1.46275e-05	-0.0036401444596407912
1.46278e-05	-0.003596606941515244
1.46280e-05	-0.003557771566255924
1.46283e-05	-0.0035189361909968675
1.46285e-05	-0.0034808200651050445
1.46288e-05	-0.0034484674322620866
1.46290e-05	-0.003416291736855939
1.46293e-05	-0.003385533877506896
1.46295e-05	-0.0033547773872625655
1.46298e-05	-0.0033240318679374284
1.46300e-05	-0.0032932863486124994
1.46303e-05	-0.003262737265705858
1.46305e-05	-0.0032337622682052794
1.46308e-05	-0.003204787270704897
1.46310e-05	-0.003175718674647841
1.46313e-05	-0.00314590005411509
1.46315e-05	-0.003116081433582541
1.46318e-05	-0.00308626281304979
1.46320e-05	-0.003056321670542795
1.46323e-05	-0.0030253987342674033
1.46325e-05	-0.002994475797991802
1.46328e-05	-0.0029635528617162005
1.46330e-05	-0.002932471884235172
1.46333e-05	-0.002900124490081696
1.46335e-05	-0.0028677770959282204
1.46338e-05	-0.002835429701774964
1.46340e-05	-0.0028030823076214883
1.46343e-05	-0.0027707349134680126
1.46345e-05	-0.0027383767989649145
1.46348e-05	-0.0027059327800943223
1.46350e-05	-0.0026734887612237302
1.46353e-05	-0.002641044742353358
1.46355e-05	-0.002608600723482766
1.46358e-05	-0.0025761567046121737
1.46360e-05	-0.002543849144170793
1.46363e-05	-0.0025126350531753023
1.46365e-05	-0.002481608284148166
1.46368e-05	-0.002452082564565332
1.46370e-05	-0.002422748894237437
1.46373e-05	-0.002394954154074647
1.46375e-05	-0.0023673213170266045
1.46378e-05	-0.002341121410142263
1.46380e-05	-0.0023161647875109795
1.46383e-05	-0.002292644258738047
1.46385e-05	-0.0022707626049868037
1.46388e-05	-0.0022508808550690297
1.46390e-05	-0.0022340679398945066
1.46393e-05	-0.002221844986685961
1.46395e-05	-0.0022149702060498574
1.46398e-05	-0.0022134221229261593
1.46400e-05	-0.0022170537695143226
1.46403e-05	-0.0022259846619797938
1.46405e-05	-0.0022414117875977075
1.46408e-05	-0.0022580070438654393
1.46410e-05	-0.002283962771189329
1.46413e-05	-0.002311258542243095
1.46415e-05	-0.0023492923592062717
1.46418e-05	-0.0023882684303400768
1.46420e-05	-0.002435369898598785
1.46423e-05	-0.0024876132832979334
1.46425e-05	-0.0025446422185934313
1.46428e-05	-0.0026061624379954264
1.46430e-05	-0.0026721579671434128
1.46433e-05	-0.0027427898176087834
1.46435e-05	-0.0028179195359120763
1.46438e-05	-0.002897102786725326
1.46440e-05	-0.002979845994917249
1.46443e-05	-0.0030656557923534095
1.46445e-05	-0.0031540412132909433
1.46448e-05	-0.00324455020112708
