Time(s)	Current(A)
1.55000e-06	0.012071298134729144
1.55025e-06	0.012063236656865033
1.55050e-06	0.012055175179000921
1.55075e-06	0.012047113701136803
1.55100e-06	0.012039052223272692
1.55125e-06	0.012030990745408575
1.55150e-06	0.012022929267544464
1.55175e-06	0.012014867789680353
1.55200e-06	0.012006806311816234
1.55225e-06	0.011998744833952123
1.55250e-06	0.011990683356088007
1.55275e-06	0.011982621878223895
1.55300e-06	0.011974560400359784
1.55325e-06	0.011966498922495666
1.55350e-06	0.011958437444631556
1.55375e-06	0.011952464504522866
1.55400e-06	0.011948147868738218
1.55425e-06	0.011943831232953565
1.55450e-06	0.011939514597168917
1.55475e-06	0.011935197961384267
1.55500e-06	0.011930881325599614
1.55525e-06	0.011926564689814966
1.55550e-06	0.011922248054030313
1.55575e-06	0.011917931418245663
1.55600e-06	0.011913614782461016
1.55625e-06	0.01190995656392382
1.55650e-06	0.011917048895770374
1.55675e-06	0.011924141227616935
1.55700e-06	0.01193123355946349
1.55725e-06	0.011938325891310044
1.55750e-06	0.011945418223156605
1.55775e-06	0.011952510555003161
1.55800e-06	0.011959602886849722
1.55825e-06	0.011966695218696276
1.55850e-06	0.011973787550542837
1.55875e-06	0.011980879882389392
1.55900e-06	0.011996462290486903
1.55925e-06	0.012018777710697284
1.55950e-06	0.012041093130907645
1.55975e-06	0.012063408551118026
1.56000e-06	0.012085723971328387
1.56025e-06	0.012108039391538749
1.56050e-06	0.01213035481174913
1.56075e-06	0.01215267023195949
1.56100e-06	0.012174985652169871
1.56125e-06	0.012197301072380233
1.56150e-06	0.012219616492590594
1.56175e-06	0.012241931912800975
1.56200e-06	0.012264247333011336
1.56225e-06	0.012286562753221715
1.56250e-06	0.012308878173432077
1.56275e-06	0.012329455964846431
1.56300e-06	0.012348655738515674
1.56325e-06	0.012367855512184917
1.56350e-06	0.012387055285854176
1.56375e-06	0.012406255059523419
1.56400e-06	0.012425454833192679
1.56425e-06	0.012444654606861921
1.56450e-06	0.012463854380531164
1.56475e-06	0.012483054154200422
1.56500e-06	0.012502253927869666
1.56525e-06	0.012521453701538924
1.56550e-06	0.012540653475208167
1.56575e-06	0.012559853248877411
1.56600e-06	0.01257905302254667
1.56625e-06	0.012598252796215912
1.56650e-06	0.012604410308556776
1.56675e-06	0.012600224721389035
1.56700e-06	0.012596039134221292
1.56725e-06	0.012591853547053552
1.56750e-06	0.012587667959885812
1.56775e-06	0.01258348237271807
1.56800e-06	0.01257929678555033
1.56825e-06	0.012575111198382586
1.56850e-06	0.012570925611214846
1.56875e-06	0.012566740024047106
1.56900e-06	0.012562554436879363
1.56925e-06	0.012558368849711624
1.56950e-06	0.01255317925394414
1.56975e-06	0.012531596337565164
1.57000e-06	0.012510013421186189
1.57025e-06	0.012488430504807194
1.57050e-06	0.012466847588428219
1.57075e-06	0.012445264672049225
1.57100e-06	0.01242368175567025
1.57125e-06	0.012402098839291255
1.57150e-06	0.01238051592291228
1.57175e-06	0.012358933006533304
1.57200e-06	0.01233735009015431
1.57225e-06	0.012315767173775334
1.57250e-06	0.01229418425739634
1.57275e-06	0.012271492500673884
1.57300e-06	0.012247921383714536
1.57325e-06	0.012224350266755167
1.57350e-06	0.012200779149795818
1.57375e-06	0.01217720803283645
1.57400e-06	0.012153636915877102
1.57425e-06	0.012130065798917754
1.57450e-06	0.012106494681958384
1.57475e-06	0.012083341268437655
1.57500e-06	0.012067008061826121
1.57525e-06	0.012050674855214601
1.57550e-06	0.012034341648603081
1.57575e-06	0.012018008441991546
1.57600e-06	0.012001675235380026
1.57625e-06	0.011985342028768492
1.57650e-06	0.011969008822156972
1.57675e-06	0.011952675615545437
1.57700e-06	0.0119408912588842
1.57725e-06	0.011932714344713031
1.57750e-06	0.011924537430541855
1.57775e-06	0.011916360516370687
1.57800e-06	0.011908183602199512
1.57825e-06	0.011900006688028342
1.57850e-06	0.011891829773857174
1.57875e-06	0.011883652859685997
1.57900e-06	0.01187547594551483
1.57925e-06	0.011867299031343655
1.57950e-06	0.011859122117172485
1.57975e-06	0.011850945203001317
1.58000e-06	0.01184276828883014
1.58025e-06	0.011834591374658972
1.58050e-06	0.011826414460487796
1.58075e-06	0.011818237546316628
1.58100e-06	0.011810060632145453
1.58125e-06	0.011801883717974283
1.58150e-06	0.011793706803803115
1.58175e-06	0.011788164520298792
1.58200e-06	0.011784711617344918
1.58225e-06	0.011781258714391039
1.58250e-06	0.011777805811437163
1.58275e-06	0.011774352908483287
1.58300e-06	0.01177090000552941
1.58325e-06	0.011767447102575533
1.58350e-06	0.011763994199621654
1.58375e-06	0.011760541296667778
1.58400e-06	0.011757088393713902
1.58425e-06	0.011753635490760025
1.58450e-06	0.011750182587806149
1.58475e-06	0.01174672968485227
1.58500e-06	0.011743276781898394
1.58525e-06	0.011739823878944516
1.58550e-06	0.01173637097599064
1.58575e-06	0.011732918073036764
1.58600e-06	0.011729465170082885
1.58625e-06	0.01172601226712901
1.58650e-06	0.011725687774519534
1.58675e-06	0.011727844251941056
1.58700e-06	0.011730000729362578
1.58725e-06	0.011732157206784102
1.58750e-06	0.011734313684205624
1.58775e-06	0.011736470161627148
1.58800e-06	0.01173862663904867
1.58825e-06	0.011740783116470192
1.58850e-06	0.011742939593891716
1.58875e-06	0.011745096071313238
1.58900e-06	0.011747252548734762
1.58925e-06	0.011749409026156284
1.58950e-06	0.011751565503577808
1.58975e-06	0.01175372198099933
1.59000e-06	0.011755878458420852
1.59025e-06	0.011758034935842376
1.59050e-06	0.011760191413263898
1.59075e-06	0.011762347890685422
1.59100e-06	0.011764504368106945
1.59125e-06	0.011766660845528467
1.59150e-06	0.011769972409276982
1.59175e-06	0.011774200008406064
1.59200e-06	0.011778427607535148
1.59225e-06	0.011782655206664229
1.59250e-06	0.011786882805793309
1.59275e-06	0.011791110404922393
1.59300e-06	0.011795338004051475
1.59325e-06	0.011799565603180559
1.59350e-06	0.01180379320230964
1.59375e-06	0.011808020801438723
1.59400e-06	0.011812248400567806
1.59425e-06	0.011816475999696886
1.59450e-06	0.01182070359882597
1.59475e-06	0.01182493119795505
1.59500e-06	0.011829158797084136
1.59525e-06	0.011833386396213216
1.59550e-06	0.011837613995342297
1.59575e-06	0.01184184159447138
1.59600e-06	0.011846069193600461
1.59625e-06	0.011850296792729547
1.59650e-06	0.01185460489476752
1.59675e-06	0.011858976839230997
1.59700e-06	0.011863348783694478
1.59725e-06	0.011867720728157958
1.59750e-06	0.011872092672621438
1.59775e-06	0.011876464617084916
1.59800e-06	0.011880836561548399
1.59825e-06	0.011885208506011876
1.59850e-06	0.011889580450475353
1.59875e-06	0.011893952394938834
1.59900e-06	0.011898324339402314
1.59925e-06	0.011902696283865795
1.59950e-06	0.011907068228329272
1.59975e-06	0.011911440172792751
1.60000e-06	0.011915812117256232
1.60025e-06	0.01192018406171971
1.60050e-06	0.011924556006183192
1.60075e-06	0.01192892795064667
1.60100e-06	0.011933299895110147
1.60125e-06	0.011937671839573628
1.60150e-06	0.011942043784037107
1.60175e-06	0.011946415728500588
1.60200e-06	0.011950787672964066
1.60225e-06	0.011955159617427548
1.60250e-06	0.011959531561891026
1.60275e-06	0.011963903506354503
1.60300e-06	0.011968095793553195
1.60325e-06	0.01196935466052009
1.60350e-06	0.011970613527486986
1.60375e-06	0.011971872394453882
1.60400e-06	0.011973131261420777
1.60425e-06	0.011974390128387673
1.60450e-06	0.011975648995354568
1.60475e-06	0.011976907862321464
1.60500e-06	0.01197816672928836
1.60525e-06	0.011979425596255255
1.60550e-06	0.011980684463222152
1.60575e-06	0.011981943330189048
1.60600e-06	0.011983202197155944
1.60625e-06	0.011984461064122839
1.60650e-06	0.011985719931089735
1.60675e-06	0.011986978798056632
1.60700e-06	0.011988237665023526
1.60725e-06	0.011989496531990423
1.60750e-06	0.011990755398957319
1.60775e-06	0.011992014265924215
1.60800e-06	0.01199327313289111
1.60825e-06	0.011994531999858005
1.60850e-06	0.011995790866824903
1.60875e-06	0.011997049733791797
1.60900e-06	0.011998308600758694
1.60925e-06	0.011999567467725588
1.60950e-06	0.012000826334692485
1.60975e-06	0.011999240830832796
1.61000e-06	0.011995399613048142
1.61025e-06	0.011991558395263485
1.61050e-06	0.01198771717747883
1.61075e-06	0.011983875959694173
1.61100e-06	0.011980034741909517
1.61125e-06	0.011976193524124863
1.61150e-06	0.011972352306340205
1.61175e-06	0.011968511088555551
1.61200e-06	0.011964669870770894
1.61225e-06	0.011960828652986238
1.61250e-06	0.011956987435201584
1.61275e-06	0.011953146217416926
1.61300e-06	0.011949304999632272
1.61325e-06	0.011945463781847614
1.61350e-06	0.011941622564062958
1.61375e-06	0.011937781346278304
1.61400e-06	0.011933940128493647
1.61425e-06	0.011930098910708993
1.61450e-06	0.011926257692924335
1.61475e-06	0.011922416475139681
1.61500e-06	0.011921623912477726
1.61525e-06	0.01192324907037043
1.61550e-06	0.011924874228263134
1.61575e-06	0.01192649938615584
1.61600e-06	0.011928124544048544
1.61625e-06	0.01192974970194125
1.61650e-06	0.011931374859833954
1.61675e-06	0.011933000017726658
1.61700e-06	0.011934625175619364
1.61725e-06	0.011936250333512068
1.61750e-06	0.011937875491404773
1.61775e-06	0.011939500649297477
1.61800e-06	0.011941125807190181
1.61825e-06	0.011942750965082885
1.61850e-06	0.01194437612297559
1.61875e-06	0.011946001280868295
1.61900e-06	0.011947626438761
1.61925e-06	0.011949251596653703
1.61950e-06	0.011950876754546409
1.61975e-06	0.011952501912439113
1.62000e-06	0.011954127070331819
1.62025e-06	0.01196001529248509
1.62050e-06	0.011969284316229057
1.62075e-06	0.011978553339973016
1.62100e-06	0.011987822363716975
1.62125e-06	0.011997091387460943
1.62150e-06	0.012006360411204902
1.62175e-06	0.01201562943494887
1.62200e-06	0.01202489845869283
1.62225e-06	0.01203416748243679
1.62250e-06	0.012043436506180756
1.62275e-06	0.012052705529924717
1.62300e-06	0.012061974553668683
1.62325e-06	0.012071243577412644
1.62350e-06	0.012079021179923594
1.62375e-06	0.012085616018354848
1.62400e-06	0.012092210856786096
1.62425e-06	0.01209880569521735
1.62450e-06	0.012105400533648598
1.62475e-06	0.012111995372079852
1.62500e-06	0.0121185902105111
1.62525e-06	0.012125185048942349
1.62550e-06	0.012131779887373602
1.62575e-06	0.01213837472580485
1.62600e-06	0.012144969564236104
1.62625e-06	0.012151564402667353
1.62650e-06	0.012158159241098601
1.62675e-06	0.012162070460946027
1.62700e-06	0.012163853450623287
1.62725e-06	0.01216563644030055
1.62750e-06	0.01216741942997781
1.62775e-06	0.012169202419655072
1.62800e-06	0.012170985409332334
1.62825e-06	0.012172768399009595
1.62850e-06	0.012174551388686857
1.62875e-06	0.012176334378364118
1.62900e-06	0.01217811736804138
1.62925e-06	0.012179900357718642
1.62950e-06	0.012181683347395902
1.62975e-06	0.012183466337073165
1.63000e-06	0.012185249326750426
1.63025e-06	0.012187032316427688
1.63050e-06	0.012188815306104949
1.63075e-06	0.01219059829578221
1.63100e-06	0.012192381285459472
1.63125e-06	0.012194164275136733
1.63150e-06	0.012195947264813996
1.63175e-06	0.012197730254491257
1.63200e-06	0.012199513244168517
1.63225e-06	0.01220129623384578
1.63250e-06	0.01220307922352304
1.63275e-06	0.012204862213200303
1.63300e-06	0.012206645202877564
1.63325e-06	0.012208428192554827
1.63350e-06	0.012210211182232087
1.63375e-06	0.012211994171909348
1.63400e-06	0.01221377716158661
1.63425e-06	0.012215560151263872
1.63450e-06	0.012217343140941134
1.63475e-06	0.012219126130618395
1.63500e-06	0.012220909120295656
1.63525e-06	0.012218029491897799
1.63550e-06	0.012211452197774
1.63575e-06	0.012204874903650194
1.63600e-06	0.012198297609526393
1.63625e-06	0.012191720315402594
1.63650e-06	0.012185143021278788
1.63675e-06	0.012178565727154988
1.63700e-06	0.012171988433031182
1.63725e-06	0.012165411138907383
1.63750e-06	0.012157902848949312
1.63775e-06	0.012135193381255932
1.63800e-06	0.012112483913562552
1.63825e-06	0.012089774445869153
1.63850e-06	0.012067064978175774
1.63875e-06	0.012044355510482373
1.63900e-06	0.012021646042788993
1.63925e-06	0.011998936575095613
1.63950e-06	0.011976227107402215
1.63975e-06	0.011953517639708835
1.64000e-06	0.011923565234903752
1.64025e-06	0.011887868855387314
1.64050e-06	0.011852172475870879
1.64075e-06	0.01181647609635441
1.64100e-06	0.011780779716837974
1.64125e-06	0.011745083337321506
1.64150e-06	0.01170938695780507
1.64175e-06	0.011673690578288601
1.64200e-06	0.011637994198772166
1.64225e-06	0.011602297819255728
1.64250e-06	0.011566601439739262
1.64275e-06	0.01153112006261687
1.64300e-06	0.011499149216352587
1.64325e-06	0.01146717837008833
1.64350e-06	0.011435207523824072
1.64375e-06	0.011403236677559787
1.64400e-06	0.01137126583129553
1.64425e-06	0.011339294985031246
1.64450e-06	0.011307324138766988
1.64475e-06	0.01127535329250273
1.64500e-06	0.011243382446238445
1.64525e-06	0.011211411599974188
1.64550e-06	0.011179440753709904
1.64575e-06	0.011156041634980704
1.64600e-06	0.01113944028149968
1.64625e-06	0.01112283892801867
1.64650e-06	0.01110623757453766
1.64675e-06	0.011089636221056636
1.64700e-06	0.011073034867575627
1.64725e-06	0.011056433514094603
1.64750e-06	0.011039832160613593
1.64775e-06	0.011023230807132585
1.64800e-06	0.011006629453651561
1.64825e-06	0.010990028100170551
1.64850e-06	0.010973426746689528
1.64875e-06	0.010956825393208518
1.64900e-06	0.010940224039727508
1.64925e-06	0.010923622686246484
1.64950e-06	0.010907021332765474
1.64975e-06	0.01089041997928445
1.65000e-06	0.010873818625803442
1.65025e-06	0.01085767295180022
1.65050e-06	0.010848967552473837
1.65075e-06	0.010840262153147462
1.65100e-06	0.010831556753821078
1.65125e-06	0.010822851354494702
1.65150e-06	0.010814145955168318
1.65175e-06	0.010805440555841943
1.65200e-06	0.010796735156515568
1.65225e-06	0.010788029757189184
1.65250e-06	0.010779324357862809
1.65275e-06	0.010770618958536425
1.65300e-06	0.01076191355921005
1.65325e-06	0.010753208159883674
1.65350e-06	0.01074450276055729
1.65375e-06	0.010735797361230915
1.65400e-06	0.010727091961904531
1.65425e-06	0.010718386562578156
1.65450e-06	0.01070968116325178
1.65475e-06	0.010700975763925397
1.65500e-06	0.010696299042255917
1.65525e-06	0.01069481724306371
1.65550e-06	0.010693335443871502
1.65575e-06	0.010691853644679295
1.65600e-06	0.010690371845487087
1.65625e-06	0.01068889004629488
1.65650e-06	0.010687408247102672
1.65675e-06	0.010685926447910466
1.65700e-06	0.010684444648718257
1.65725e-06	0.010682962849526051
1.65750e-06	0.010681481050333844
1.65775e-06	0.010679999251141636
1.65800e-06	0.01067851745194943
1.65825e-06	0.010677035652757221
1.65850e-06	0.010675553853565015
1.65875e-06	0.010674072054372808
1.65900e-06	0.0106725902551806
1.65925e-06	0.010671108455988393
1.65950e-06	0.010669626656796185
1.65975e-06	0.010668144857603978
1.66000e-06	0.01066666305841177
1.66025e-06	0.010665483470375603
1.66050e-06	0.010669238346409808
1.66075e-06	0.010672993222444015
1.66100e-06	0.010676748098478218
1.66125e-06	0.010680502974512427
1.66150e-06	0.01068425785054663
1.66175e-06	0.010688012726580836
1.66200e-06	0.010691767602615043
1.66225e-06	0.010695522478649248
1.66250e-06	0.010699277354683455
1.66275e-06	0.010703032230717658
1.66300e-06	0.010706787106751863
1.66325e-06	0.01071054198278607
1.66350e-06	0.010714296858820275
1.66375e-06	0.010718051734854482
1.66400e-06	0.010721806610888687
1.66425e-06	0.010725561486922894
1.66450e-06	0.010729316362957098
1.66475e-06	0.010733071238991303
1.66500e-06	0.01073682611502551
1.66525e-06	0.010740580991059715
1.66550e-06	0.010744335867093922
1.66575e-06	0.010750416688081054
1.66600e-06	0.010758342087970602
1.66625e-06	0.010766267487860158
1.66650e-06	0.010774192887749707
1.66675e-06	0.010782118287639262
1.66700e-06	0.01079004368752881
1.66725e-06	0.010797969087418358
1.66750e-06	0.010805894487307914
1.66775e-06	0.010813819887197464
1.66800e-06	0.010821745287087018
1.66825e-06	0.010829670686976567
1.66850e-06	0.010837596086866122
1.66875e-06	0.010851078550451731
1.66900e-06	0.010868968015346663
1.66925e-06	0.010886857480241608
1.66950e-06	0.010904746945136538
1.66975e-06	0.010922636410031484
1.67000e-06	0.010940525874926416
1.67025e-06	0.010958415339821346
1.67050e-06	0.010976304804716291
1.67075e-06	0.010994194269611221
1.67100e-06	0.011012083734506167
1.67125e-06	0.011029973199401098
1.67150e-06	0.011047862664296028
1.67175e-06	0.011067351791579173
1.67200e-06	0.011088109523043349
1.67225e-06	0.01110886725450754
1.67250e-06	0.011129624985971713
1.67275e-06	0.011150382717435904
1.67300e-06	0.01117114044890008
1.67325e-06	0.011191898180364254
1.67350e-06	0.011212655911828445
1.67375e-06	0.01123341364329262
1.67400e-06	0.011250811956775077
1.67425e-06	0.01126554610078721
1.67450e-06	0.011280280244799344
1.67475e-06	0.011295014388811489
1.67500e-06	0.011309748532823623
1.67525e-06	0.011324482676835768
1.67550e-06	0.011339216820847903
1.67575e-06	0.011353950964860035
1.67600e-06	0.01136868510887218
1.67625e-06	0.011381220801824583
1.67650e-06	0.01139201302426303
1.67675e-06	0.011402805246701467
1.67700e-06	0.011413597469139912
1.67725e-06	0.011424389691578348
1.67750e-06	0.011435181914016787
1.67775e-06	0.011445974136455232
1.67800e-06	0.011456766358893668
1.67825e-06	0.011467558581332115
1.67850e-06	0.011478350803770552
1.67875e-06	0.011489143026208988
1.67900e-06	0.011499935248647435
1.67925e-06	0.011510727471085872
1.67950e-06	0.011521519693524317
1.67975e-06	0.011532311915962754
1.68000e-06	0.011543104138401192
1.68025e-06	0.01155383852245243
1.68050e-06	0.011563628528912996
1.68075e-06	0.011573418535373569
1.68100e-06	0.011583208541834134
1.68125e-06	0.011592998548294708
1.68150e-06	0.011602788554755272
1.68175e-06	0.011612578561215838
1.68200e-06	0.011622368567676412
1.68225e-06	0.011632158574136978
1.68250e-06	0.01164194858059755
1.68275e-06	0.011651738587058116
1.68300e-06	0.011661528593518681
1.68325e-06	0.011671318599979255
1.68350e-06	0.01168110860643982
1.68375e-06	0.011690898612900394
1.68400e-06	0.011700688619360959
1.68425e-06	0.011710478625821525
1.68450e-06	0.011716237535319337
1.68475e-06	0.011718799603722104
1.68500e-06	0.011721361672124873
1.68525e-06	0.01172392374052764
1.68550e-06	0.011726485808930409
1.68575e-06	0.011729047877333176
1.68600e-06	0.011731609945735943
1.68625e-06	0.011734172014138712
1.68650e-06	0.01173673408254148
1.68675e-06	0.011729056534128477
1.68700e-06	0.011713258509295275
1.68725e-06	0.011697460484462073
1.68750e-06	0.011681662459628858
1.68775e-06	0.011665864434795656
1.68800e-06	0.01165006640996244
1.68825e-06	0.011634268385129237
1.68850e-06	0.011618470360296035
1.68875e-06	0.011602672335462819
1.68900e-06	0.011575214028787424
1.68925e-06	0.011538508594465037
1.68950e-06	0.011501803160142682
1.68975e-06	0.011465097725820326
1.69000e-06	0.011428392291497938
1.69025e-06	0.011391686857175582
1.69050e-06	0.011354981422853195
1.69075e-06	0.01131827598853084
1.69100e-06	0.011281570554208453
1.69125e-06	0.011244865119886097
1.69150e-06	0.01120815968556374
1.69175e-06	0.011171454251241353
1.69200e-06	0.011134566382085166
1.69225e-06	0.011094699740921305
1.69250e-06	0.011054833099757478
1.69275e-06	0.01101496645859365
1.69300e-06	0.010975099817429789
1.69325e-06	0.010935233176265963
1.69350e-06	0.010895366535102102
1.69375e-06	0.010855499893938273
1.69400e-06	0.010815633252774447
1.69425e-06	0.010775766611610586
1.69450e-06	0.010735899970446758
1.69475e-06	0.010696033329282897
1.69500e-06	0.010656166688119069
1.69525e-06	0.010629406008531607
1.69550e-06	0.010613038945605316
1.69575e-06	0.010596671882679024
1.69600e-06	0.01058030481975272
1.69625e-06	0.010563937756826427
1.69650e-06	0.01054757069390012
1.69675e-06	0.01053120363097383
1.69700e-06	0.010514836568047537
1.69725e-06	0.010498469505121233
1.69750e-06	0.01048377894981825
1.69775e-06	0.01049646219080915
1.69800e-06	0.01050914543180004
1.69825e-06	0.010521828672790931
1.69850e-06	0.010534511913781831
1.69875e-06	0.010547195154772721
1.69900e-06	0.010559878395763623
1.69925e-06	0.010572561636754513
1.69950e-06	0.010585244877745413
1.69975e-06	0.010597928118736303
1.70000e-06	0.010622868301741056
1.70025e-06	0.010657528790729048
1.70050e-06	0.010692189279717011
1.70075e-06	0.010726849768705003
1.70100e-06	0.010761510257692964
1.70125e-06	0.010796170746680926
1.70150e-06	0.01083083123566892
1.70175e-06	0.010865491724656881
