Time(s)	Current(A)
1.12500e-05	0.0019178226747100986
1.12503e-05	0.0019323937693627364
1.12505e-05	0.0019453325023171748
1.12508e-05	0.0019559860079071296
1.12510e-05	0.0019664155444859667
1.12513e-05	0.001976845081064733
1.12515e-05	0.00198727461764357
1.12518e-05	0.0019977041542224073
1.12520e-05	0.0020081336908011737
1.12523e-05	0.0020185632273800108
1.12525e-05	0.002028992763958848
1.12527e-05	0.0020394223005376143
1.12530e-05	0.0020498518371164513
1.12533e-05	0.0020602813736952884
1.12535e-05	0.002070710910274055
1.12538e-05	0.002081140446852892
1.12540e-05	0.0020893597908946578
1.12542e-05	0.002094320273627744
1.12545e-05	0.0020992807563608635
1.12548e-05	0.0021042412390939835
1.12550e-05	0.002109201721827103
1.12553e-05	0.0021141622045601893
1.12555e-05	0.002119122687293309
1.12558e-05	0.0021240831700264284
1.12560e-05	0.0021290436527595146
1.12563e-05	0.002134004135492634
1.12565e-05	0.002138964618225754
1.12568e-05	0.0021439251009588403
1.12570e-05	0.00214888558369196
1.12573e-05	0.0021538460664250795
1.12575e-05	0.002147713781391521
1.12578e-05	0.0021404052274872215
1.12580e-05	0.0021330966735829218
1.12583e-05	0.002125788119678672
1.12585e-05	0.0021184795657743726
1.12588e-05	0.002111171011870073
1.12590e-05	0.002103862457965823
1.12593e-05	0.0020965539040615237
1.12595e-05	0.002089245350157224
1.12598e-05	0.002081936796252974
1.12600e-05	0.002074628242348675
1.12603e-05	0.002057004237063186
1.12605e-05	0.0020382863889601577
1.12608e-05	0.002019568540857003
1.12610e-05	0.002000850692753848
1.12612e-05	0.00198213284465082
1.12615e-05	0.0019634149965476653
1.12618e-05	0.0019446971484445106
1.12620e-05	0.0019259793003414826
1.12623e-05	0.0019072614522383279
1.12625e-05	0.001888543604135173
1.12627e-05	0.0018698257560321452
1.12630e-05	0.0018483773628792425
1.12633e-05	0.0018266394247533142
1.12635e-05	0.001804901486627386
1.12638e-05	0.001783163548501605
1.12640e-05	0.0017614256103756767
1.12643e-05	0.0017396876722497485
1.12645e-05	0.0017179497341239676
1.12648e-05	0.0016982069598787662
1.12650e-05	0.0016814059937649605
1.12653e-05	0.0016646050276512684
1.12655e-05	0.0016478040615374627
1.12658e-05	0.001631003095423657
1.12660e-05	0.001614202129309965
1.12663e-05	0.0015974011631961593
1.12665e-05	0.0015806001970823536
1.12668e-05	0.0015777734114148982
1.12670e-05	0.001576428437483896
1.12673e-05	0.0015750834635528941
1.12675e-05	0.001573738489621901
1.12678e-05	0.001572393515690899
1.12680e-05	0.001571048541759897
1.12683e-05	0.0015697035678289039
1.12685e-05	0.0015683585938979017
1.12688e-05	0.0015670136199668998
1.12690e-05	0.0015656686460359067
1.12693e-05	0.0015720309771441914
1.12695e-05	0.0015897574938501075
1.12697e-05	0.0016074840105559038
1.12700e-05	0.00162521052726182
1.12703e-05	0.001642937043967736
1.12705e-05	0.0016606635606735323
1.12708e-05	0.0016783900773794484
1.12710e-05	0.0016961165940853646
1.12712e-05	0.0017138431107911608
1.12715e-05	0.001731569627497077
1.12718e-05	0.001749296144202993
1.12720e-05	0.0017755306257842913
1.12723e-05	0.0018026672856546525
1.12725e-05	0.0018298039455251977
1.12728e-05	0.0018569406053957427
1.12730e-05	0.0018840772652661038
1.12733e-05	0.0019112139251366489
1.12735e-05	0.001938350585007194
1.12738e-05	0.0019649974460769627
1.12740e-05	0.001990922113792989
1.12743e-05	0.0020168467815090156
1.12745e-05	0.002042771449224866
1.12748e-05	0.0020686961169408924
1.12750e-05	0.0020946207846569186
1.12753e-05	0.002120545452372769
1.12755e-05	0.0021464701200887954
1.12758e-05	0.002161043007886489
1.12760e-05	0.0021744121613550666
1.12763e-05	0.0021877813148237354
1.12765e-05	0.0022011504682924042
1.12768e-05	0.002214519621760982
1.12770e-05	0.002227888775229651
1.12773e-05	0.0022412579286983196
1.12775e-05	0.0022546270821668974
1.12778e-05	0.002267996235635566
1.12780e-05	0.0022813653891042346
1.12782e-05	0.0022947345425728127
1.12785e-05	0.0023081036960414815
1.12788e-05	0.00232147284951015
1.12790e-05	0.002322805840559269
1.12793e-05	0.002322862525865974
1.12795e-05	0.002322919211172679
1.12797e-05	0.0023229758964793835
1.12800e-05	0.0023230325817860885
1.12803e-05	0.0023230892670927936
1.12805e-05	0.0023231459523994987
1.12808e-05	0.0023232026377062033
1.12810e-05	0.0023232593230129083
1.12813e-05	0.0023233160083196134
1.12815e-05	0.002323372693626318
1.12818e-05	0.002323429378933023
1.12820e-05	0.002323486064239728
1.12823e-05	0.002318403561483687
1.12825e-05	0.002312776103034234
1.12828e-05	0.0023071486445847807
1.12830e-05	0.0023015211861353657
1.12833e-05	0.0022958937276859126
1.12835e-05	0.0022902662692364595
1.12838e-05	0.0022846388107870446
1.12840e-05	0.0022790113523375915
1.12843e-05	0.0022733838938881383
1.12845e-05	0.002267756435438723
1.12848e-05	0.00226212897698927
1.12850e-05	0.0022565015185398167
1.12853e-05	0.002250121983459434
1.12855e-05	0.0022436626987304203
1.12858e-05	0.002237203414001406
1.12860e-05	0.0022307441292724363
1.12863e-05	0.0022242848445434226
1.12865e-05	0.0022178255598144085
1.12867e-05	0.0022113662750854386
1.12870e-05	0.002204906990356425
1.12873e-05	0.0021984477056274107
1.12875e-05	0.002191988420898441
1.12878e-05	0.0021855291361694267
1.12880e-05	0.002179069851440413
1.12882e-05	0.0021659463195396723
1.12885e-05	0.002152116115807366
1.12888e-05	0.0021382859120750593
1.12890e-05	0.0021244557083427533
1.12893e-05	0.0021106255046105405
1.12895e-05	0.002096795300878234
1.12898e-05	0.002082965097145928
1.12900e-05	0.0020691348934137152
1.12903e-05	0.002055304689681409
1.12905e-05	0.0020414744859491027
1.12908e-05	0.00202764428221689
1.12910e-05	0.0020079949255812817
1.12913e-05	0.0019877285102839737
1.12915e-05	0.0019674620949868033
1.12918e-05	0.0019471956796894955
1.12920e-05	0.0019269292643921878
1.12923e-05	0.0019066628490950173
1.12925e-05	0.0018863964337977096
1.12928e-05	0.0018661300185004019
1.12930e-05	0.0018458636032032314
1.12933e-05	0.0018255971879059237
1.12935e-05	0.001805330772608616
1.12938e-05	0.001785397688318184
1.12940e-05	0.0017654999502005717
1.12943e-05	0.0017456022120829594
1.12945e-05	0.001725704473965482
1.12948e-05	0.0017058067358478699
1.12950e-05	0.0016859089977302579
1.12952e-05	0.001670309183598766
1.12955e-05	0.0016558223126390116
1.12958e-05	0.0016413354416792572
1.12960e-05	0.001626848570719601
1.12963e-05	0.0016123616997598467
1.12965e-05	0.0015978748288000924
1.12967e-05	0.0015906471131200749
1.12970e-05	-0.002300413091290019
1.12973e-05	-0.0076051933505648485
1.12975e-05	-0.00886411465219495
1.12978e-05	-0.0073926680656322685
1.12980e-05	-0.004258476889809296
1.12983e-05	-0.0004360923605129011
1.12985e-05	0.001466361997440955
1.12988e-05	0.001141998738879155
1.12990e-05	-0.0009409852126331516
1.12993e-05	-0.0038803880542449547
1.12995e-05	-0.005122233082448948
1.12998e-05	-0.0042199880200782264
1.13000e-05	-0.0021733353545145035
1.13003e-05	9.72435230844153e-05
1.13005e-05	0.0014715758912953846
1.13008e-05	0.001375030404648019
1.13010e-05	0.00013477651979023708
1.13013e-05	-0.0010810500330522663
1.13015e-05	-0.002024570053069852
1.13018e-05	-0.0014639711297635026
1.13020e-05	-1.506948476816196e-05
1.13023e-05	0.0013742764270679836
1.13025e-05	0.0023092448549991793
1.13028e-05	0.0021792646779286223
1.13030e-05	0.0013328728762134212
1.13033e-05	0.0003960989504803229
1.13035e-05	-0.00017424097685541263
1.13037e-05	0.00020118603612989303
1.13040e-05	0.0011184928499517433
1.13043e-05	0.0019972568032122513
1.13045e-05	0.002590409805986662
1.13048e-05	0.0025154666485009154
1.13050e-05	0.001990732774528814
1.13052e-05	0.001408305865509967
1.13055e-05	0.0010542573117579823
1.13058e-05	0.0012913727416770525
1.13060e-05	0.001866544327937738
1.13063e-05	0.00241620602353731
1.13065e-05	0.002785926002209399
1.13068e-05	0.0027366042175067514
1.13070e-05	0.0024052362513010904
1.13073e-05	0.0020374736161732922
1.13075e-05	0.0018125251563518364
1.13078e-05	0.0019576335915080963
1.13080e-05	0.0023142440262057997
1.13083e-05	0.002654628039669241
1.13085e-05	0.0028820729773732508
1.13088e-05	0.002846842059047701
1.13090e-05	0.002634785999198195
1.13093e-05	0.002399807553600471
1.13095e-05	0.002254176706479568
1.13098e-05	0.002340240299634725
1.13100e-05	0.0025586806177706105
1.13103e-05	0.002766859932461563
1.13105e-05	0.0029042184394938546
1.13108e-05	0.00287698828395135
1.13110e-05	0.0027389764245473428
1.13113e-05	0.002586609017317356
1.13115e-05	0.0024902272988832795
1.13118e-05	0.002539004497679136
1.13120e-05	0.0026707339460774623
1.13122e-05	0.002796081116382695
1.13125e-05	0.0028771303329342404
1.13128e-05	0.002855168709465923
1.13130e-05	0.002763925312746137
1.13133e-05	0.002663821716698012
1.13135e-05	0.0025989348204670955
1.13137e-05	0.0026251331355471343
1.13140e-05	0.0027034605699909047
1.13143e-05	0.002777972447850113
1.13145e-05	0.0028249364626045225
1.13148e-05	0.002807595637109658
1.13150e-05	0.0027470990260064264
1.13153e-05	0.0026813132757813546
1.13155e-05	0.0026378640111923285
1.13158e-05	0.0026517599393425886
1.13160e-05	0.0026986114035253213
1.13163e-05	0.002743466630841546
1.13165e-05	0.0027717732317784818
1.13168e-05	0.002760875823082766
1.13170e-05	0.0027241392813699005
1.13173e-05	0.002685226847604174
1.13175e-05	0.002661377845558832
1.13178e-05	0.002674453925435676
1.13180e-05	0.002709109446859338
1.13183e-05	0.0027433842422896607
1.13185e-05	0.002768098186576388
1.13188e-05	0.0027689961482964508
1.13190e-05	0.002754386164737244
1.13193e-05	0.002744022821902725
1.13195e-05	0.002733766282803772
1.13198e-05	0.0027518844607117877
1.13200e-05	0.0027840496329888005
1.13203e-05	0.00281347332386485
1.13205e-05	0.002842826050279749
1.13207e-05	0.0028501497260017133
1.13210e-05	0.002856961302897152
1.13213e-05	0.0028621368592532874
1.13215e-05	0.0028672743838208145
1.13218e-05	0.0028942921471991085
1.13220e-05	0.0029218185500451805
1.13222e-05	0.0029512813276878352
1.13225e-05	0.0029807891193113084
1.13228e-05	0.0029958997026478546
1.13230e-05	0.0030106756009554165
1.13233e-05	0.0030235746264647826
1.13235e-05	0.0030364300212081656
1.13238e-05	0.003061882546562952
1.13240e-05	0.0030876279114001263
1.13243e-05	0.003110461167262268
1.13245e-05	0.0031332267267170266
1.13248e-05	0.0031559922861716314
1.13250e-05	0.0031680596972238568
1.13253e-05	0.003179878413526371
1.13255e-05	0.0031916971298288047
1.13258e-05	0.003208773865967348
1.13260e-05	0.0032259728327834157
1.13263e-05	0.003243171799599367
1.13265e-05	0.0032510320699248316
1.13268e-05	0.003258675248030186
1.13270e-05	0.0032663184261354887
1.13273e-05	0.003273961604240843
1.13275e-05	0.003281604782346197
1.13278e-05	0.003285038541040193
1.13280e-05	0.0032883744453702122
1.13283e-05	0.003291710349700232
1.13285e-05	0.003295046254030229
1.13288e-05	0.003298382158360249
1.13290e-05	0.0032933294969474344
1.13292e-05	0.0032880818305504374
1.13295e-05	0.003282834164153405
1.13298e-05	0.0032775864977563724
1.13300e-05	0.0032723388313593755
1.13303e-05	0.003267091164962343
1.13305e-05	0.0032618434985653105
1.13307e-05	0.0032565958321683136
1.13310e-05	0.003251348165771281
1.13313e-05	0.003240360850867833
1.13315e-05	0.0032292401090948334
1.13318e-05	0.003218119367321909
1.13320e-05	0.00320699862554891
1.13323e-05	0.0031958778837759103
1.13325e-05	0.003184757142002986
1.13328e-05	0.0031736364002299864
1.13330e-05	0.003162515658456987
1.13333e-05	0.003151394916684063
1.13335e-05	0.0031393391168654293
1.13338e-05	0.0031272615801986635
1.13340e-05	0.0031151840435319792
1.13343e-05	0.0031031065068652134
1.13345e-05	0.0030910289701984476
1.13348e-05	0.003078951433531764
1.13350e-05	0.003066873896864998
1.13353e-05	0.003054796360198232
1.13355e-05	0.003042912631667045
1.13358e-05	0.0030310334085010115
1.13360e-05	0.003019154185334978
1.13363e-05	0.0030072749621690245
1.13365e-05	0.002995395739002991
1.13368e-05	0.002983516515836957
1.13370e-05	0.0029716372926710042
1.13373e-05	0.0029597580695049706
1.13375e-05	0.0029350268640035353
1.13377e-05	0.0029099968946020476
1.13380e-05	0.00288496692520039
1.13383e-05	0.0028599369557987322
1.13385e-05	0.002834906986397244
1.13388e-05	0.002809877016995587
1.13390e-05	0.0027848470475939292
1.13392e-05	0.002759817078192441
1.13395e-05	0.0027347871087907835
1.13398e-05	0.0027097571393891262
1.13400e-05	0.002667900391562397
1.13403e-05	0.0026256524796475006
1.13405e-05	0.0025834045677323174
1.13408e-05	0.0025411566558171342
1.13410e-05	0.0024989087439022373
1.13413e-05	0.0024566608319870546
1.13415e-05	0.0024144129200718715
1.13418e-05	0.0023721650081569745
1.13420e-05	0.0023299170962417914
1.13423e-05	0.0022876691843266087
1.13425e-05	0.0022392074813376408
1.13428e-05	0.0021906013293122788
1.13430e-05	0.002141995177286917
1.13433e-05	0.0020933890252618844
1.13435e-05	0.002044782873236523
1.13438e-05	0.001996176721211161
1.13440e-05	0.0019511867092989702
1.13443e-05	0.0019062807600702166
1.13445e-05	0.0018613748108414628
1.13448e-05	0.0018164688616130135
1.13450e-05	0.00177156291238426
1.13453e-05	0.0017266569631555063
1.13455e-05	0.0016895078712065522
1.13458e-05	0.0016525390992174055
1.13460e-05	0.0016155703272282586
1.13462e-05	0.0015857540064608488
1.13465e-05	0.001556103955314103
1.13468e-05	0.0015344266031458642
1.13470e-05	0.0015129345885069303
1.13473e-05	0.0015000634805667637
1.13475e-05	0.0014873927787314163
1.13477e-05	0.0014833680131165978
1.13480e-05	0.0014795442354558572
1.13483e-05	0.001484470892267711
1.13485e-05	0.0014896009662546759
1.13488e-05	0.0015039831459636233
1.13490e-05	0.0015185804049598912
1.13493e-05	0.0015420746348998233
1.13495e-05	0.0015657756884780692
1.13498e-05	0.0015976284589986893
1.13500e-05	0.0016296707285936567
1.13503e-05	0.0016709529494230145
1.13505e-05	0.0017124499669903708
1.13508e-05	0.0017539469845577274
1.13510e-05	0.0018052398742003462
1.13513e-05	0.0018567604838076453
1.13515e-05	0.0019082810934149446
1.13518e-05	0.001969336737144961
1.13520e-05	0.002030614037264361
1.13523e-05	0.002091891337383761
1.13525e-05	0.0021531686375027455
1.13528e-05	0.0022144459376221455
1.13530e-05	0.0022757232377415455
1.13533e-05	0.002340199652014516
1.13535e-05	0.0024047504345683676
1.13538e-05	0.002469301217122219
1.13540e-05	0.0025338519996756337
1.13543e-05	0.0025984027822294853
1.13545e-05	0.002662953564783337
1.13548e-05	0.0027165224522624895
1.13550e-05	0.002769836048866507
1.13553e-05	0.0028231496454705247
1.13555e-05	0.002876463242074181
1.13558e-05	0.0029297768386781988
1.13560e-05	0.0029830904352822164
1.13562e-05	0.00302299862103023
1.13565e-05	0.0030482252123284433
1.13568e-05	0.003073451803626657
1.13570e-05	0.0030986783949248703
1.13573e-05	0.0031239049862229126
1.13575e-05	0.003149131577521126
1.13578e-05	0.0031743581688193395
1.13580e-05	0.003174072005533304
1.13583e-05	0.0031731927594126504
1.13585e-05	0.003172313513291997
1.13588e-05	0.003154889298405954
1.13590e-05	0.0031370804705239024
1.13593e-05	0.00311927164264185
1.13595e-05	0.0030861639369279908
1.13598e-05	0.003052700585499482
1.13600e-05	0.0030192372340709732
1.13603e-05	0.002972096083483858
1.13605e-05	0.0029246369716244567
1.13608e-05	0.0028771778597650555
1.13610e-05	0.0028181149100645515
1.13613e-05	0.0027587822114809486
1.13615e-05	0.0026994495128973457
1.13618e-05	0.002628957122917733
1.13620e-05	0.002558205308915393
1.13623e-05	0.002487453494913052
1.13625e-05	0.0024167016809111914
1.13628e-05	0.0023459498669088506
1.13630e-05	0.0022727404355140455
1.13633e-05	0.002196839423662859
1.13635e-05	0.0021209384118111583
1.13638e-05	0.0020450373999594575
1.13640e-05	0.001969136388108271
1.13643e-05	0.00189323537625657
1.13645e-05	0.0018216778275900638
1.13647e-05	0.0017502212493408155
1.13650e-05	0.0016787646710910828
1.13653e-05	0.001615577770883343
1.13655e-05	0.001552583111936352
1.13658e-05	0.001489588452989788
1.13660e-05	0.0014365544058766533
1.13663e-05	0.0013837519083556105
1.13665e-05	0.0013380659295227741
1.13668e-05	0.0012925453850049888
1.13670e-05	0.001251707124442948
1.13673e-05	0.0012109777107028872
1.13675e-05	0.0011756549580232913
1.13678e-05	0.0011404578914144749
1.13680e-05	0.0011116188352230023
1.13683e-05	0.0010829275806668232
1.13685e-05	0.0010597109081909328
1.13688e-05	0.0010366215007135615
1.13690e-05	0.0010173158742567212
1.13693e-05	0.0009980982075525136
1.13695e-05	0.0009840717015216901
1.13698e-05	0.0009701658719269092
1.13700e-05	0.0009562600423321282
1.13703e-05	0.0009486377792898454
1.13705e-05	0.0009411615873221197
1.13708e-05	0.0009336853953543939
1.13710e-05	0.0009302826631946391
1.13713e-05	0.000926974624812151
1.13715e-05	0.000923666586429663
1.13718e-05	0.0009242957486572778
1.13720e-05	0.0009250164371096043
1.13723e-05	0.0009257371255619309
1.13725e-05	0.000930303628428399
1.13728e-05	0.0009349595331082685
1.13730e-05	0.0009396154377881382
1.13732e-05	0.0009442713424679763
1.13735e-05	0.0009489272471478458
1.13738e-05	0.0009535831518277155
1.13740e-05	0.0009601041919763954
1.13743e-05	0.0009666685900396976
1.13745e-05	0.0009732329881030444
1.13748e-05	0.000979797386166391
1.13750e-05	0.0009863617842296934
1.13753e-05	0.0009929261822930401
1.13755e-05	0.000998251146896615
1.13758e-05	0.0010035472989816448
1.13760e-05	0.0010088434510667108
1.13763e-05	0.0010141396031517766
1.13765e-05	0.0010194357552368064
1.13768e-05	0.0010247319073218724
1.13770e-05	0.0010300280594069382
1.13773e-05	0.0010363533844037487
1.13775e-05	0.0010438058586899075
1.13778e-05	0.0010512583329760664
1.13780e-05	0.0010587108072621747
1.13783e-05	0.0010661632815483337
1.13785e-05	0.0010736157558344924
1.13788e-05	0.0010810682301206009
1.13790e-05	0.0010885207044067599
1.13793e-05	0.0011005073719117682
1.13795e-05	0.0011125994436440943
1.13798e-05	0.0011246915153765025
1.13800e-05	0.0011367835871089107
1.13803e-05	0.0011488756588412367
1.13805e-05	0.001160967730573645
1.13808e-05	0.001173059802306053
1.13810e-05	0.0011851518740383792
1.13813e-05	0.0011972439457707874
1.13815e-05	0.0012107292248306563
1.13817e-05	0.001225740343359429
1.13820e-05	0.0012407514618883032
1.13823e-05	0.0012557625804171773
1.13825e-05	0.00127077369894595
1.13828e-05	0.0012857848174748243
1.13830e-05	0.0013007959360036986
1.13833e-05	0.001315807054532573
1.13835e-05	0.0013308181730613455
1.13838e-05	0.0013458292915902198
1.13840e-05	0.0013591321422860162
1.13843e-05	0.001372395281694008
1.13845e-05	0.0013856584211020897
1.13848e-05	0.0013989215605101715
1.13850e-05	0.0014121846999181635
1.13853e-05	0.0014254478393262453
1.13855e-05	0.001438710978734327
1.13858e-05	0.0014519741181423188
1.13860e-05	0.0014582221653107982
1.13863e-05	0.0014643071359750363
1.13865e-05	0.001470392106639233
1.13868e-05	0.0014764770773034713
1.13870e-05	0.0014825620479677094
1.13873e-05	0.0014886470186319064
1.13875e-05	0.0014947319892961444
1.13878e-05	0.0015008169599603825
1.13880e-05	0.001495638753421414
1.13883e-05	0.0014901987171725803
1.13885e-05	0.0014847586809237467
1.13888e-05	0.0014793186446749498
1.13890e-05	0.001473878608426116
1.13893e-05	0.0014684385721772824
1.13895e-05	0.0014629985359284855
1.13898e-05	0.0014575584996796517
1.13900e-05	0.001452118463430818
1.13902e-05	0.0014366682366716615
1.13905e-05	0.001420985307786615
1.13908e-05	0.0014053023789015687
1.13910e-05	0.0013896194500166285
1.13913e-05	0.0013739365211315822
1.13915e-05	0.0013582535922465357
1.13918e-05	0.0013425706633614892
1.13920e-05	0.0013268877344765491
1.13923e-05	0.0013112048055915026
1.13925e-05	0.001291376619554305
1.13928e-05	0.001271452070700719
1.13930e-05	0.0012515275218469982
1.13933e-05	0.0012316029729932774
1.13935e-05	0.0012116784241396914
1.13938e-05	0.0011917538752859705
1.13940e-05	0.0011718293264322494
1.13943e-05	0.0011537547355137687
1.13945e-05	0.0011357231496852346
1.13948e-05	0.0011176915638567003
1.13950e-05	0.0010996599780282884
1.13953e-05	0.001081628392199754
1.13955e-05	0.00106359680637122
1.13958e-05	0.001045565220542808
1.13960e-05	0.00103426714971301
1.13963e-05	0.0010231256096960308
1.13965e-05	0.0010119840696791273
1.13968e-05	0.0010008425296621484
1.13970e-05	0.0009897009896451695
1.13973e-05	0.000978559449628266
1.13975e-05	0.000967417909611287
1.13978e-05	0.000956276369594308
1.13980e-05	0.0009451348295774045
