Time(s)	Current(A)
3.75000e-06	0.0022416982217490482
3.75025e-06	0.0022345147836801043
3.75050e-06	0.0022273313456111603
3.75075e-06	0.0022201479075422284
3.75100e-06	0.002212964469473285
3.75125e-06	0.002205781031404341
3.75150e-06	0.0022057525025910812
3.75175e-06	0.0022082704557139948
3.75200e-06	0.002210788408836913
3.75225e-06	0.002213306361959831
3.75250e-06	0.002215824315082745
3.75275e-06	0.002218342268205663
3.75300e-06	0.002220860221328581
3.75325e-06	0.002223378174451499
3.75350e-06	0.002225896127574413
3.75375e-06	0.0022314441748065624
3.75400e-06	0.002246719681109277
3.75425e-06	0.0022619951874119654
3.75450e-06	0.0022772706937146795
3.75475e-06	0.002292546200017394
3.75500e-06	0.0023078217063200825
3.75525e-06	0.0023230972126227966
3.75550e-06	0.002338372718925511
3.75575e-06	0.0023536482252282252
3.75600e-06	0.0023689237315309137
3.75625e-06	0.0023858397264502874
3.75650e-06	0.0024080221537969935
3.75675e-06	0.0024302045811436623
3.75700e-06	0.002452387008490369
3.75725e-06	0.0024745694358370754
3.75750e-06	0.0024967518631837443
3.75775e-06	0.0025189342905304504
3.75800e-06	0.002541116717877157
3.75825e-06	0.002563299145223863
3.75850e-06	0.002585481572570532
3.75875e-06	0.0026065867392739343
3.75900e-06	0.0026242335946381817
3.75925e-06	0.002641880450002399
3.75950e-06	0.0026595273053666465
3.75975e-06	0.0026771741607308944
3.76000e-06	0.0026948210160951417
3.76025e-06	0.002712467871459359
3.76050e-06	0.0027301147268236066
3.76075e-06	0.002747761582187854
3.76100e-06	0.002765408437552072
3.76125e-06	0.0027830552929163192
3.76150e-06	0.002788364728001707
3.76175e-06	0.0027892831894550524
3.76200e-06	0.0027902016509084
3.76225e-06	0.0027911201123617473
3.76250e-06	0.0027920385738150946
3.76275e-06	0.0027929570352684405
3.76300e-06	0.0027938754967217878
3.76325e-06	0.002794793958175135
3.76350e-06	0.002795712419628481
3.76375e-06	0.002796630881081828
3.76400e-06	0.0027935335396009338
3.76425e-06	0.00277754433493922
3.76450e-06	0.0027615551302775333
3.76475e-06	0.00274556592561582
3.76500e-06	0.002729576720954106
3.76525e-06	0.0027135875162924194
3.76550e-06	0.0026975983116307055
3.76575e-06	0.002681609106968992
3.76600e-06	0.0026656199023073054
3.76625e-06	0.0026476081687637544
3.76650e-06	0.0026231035454914015
3.76675e-06	0.002598598922219049
3.76700e-06	0.002574094298946738
3.76725e-06	0.002549589675674385
3.76750e-06	0.002525085052402032
3.76775e-06	0.002500580429129721
3.76800e-06	0.002476075805857368
3.76825e-06	0.0024515711825850153
3.76850e-06	0.002428525409452928
3.76875e-06	0.0024101629578678866
3.76900e-06	0.0023918005062828138
3.76925e-06	0.002373438054697741
3.76950e-06	0.002355075603112699
3.76975e-06	0.002336713151527626
3.77000e-06	0.0023183506999425534
3.77025e-06	0.002299988248357512
3.77050e-06	0.002281625796772439
3.77075e-06	0.0022632633451873663
3.77100e-06	0.0022449008936022935
3.77125e-06	0.002226538442017252
3.77150e-06	0.002208175990432179
3.77175e-06	0.0021898135388471063
3.77200e-06	0.0021714510872620644
3.77225e-06	0.0021530886356769916
3.77250e-06	0.002148171774776758
3.77275e-06	0.002148040293059087
3.77300e-06	0.002147908811341416
3.77325e-06	0.0021477773296237446
3.77350e-06	0.0021476458479060736
3.77375e-06	0.0021475143661884026
3.77400e-06	0.0021473828844707312
3.77425e-06	0.0021472514027530603
3.77450e-06	0.0021471199210353893
3.77475e-06	0.0021469884393177183
3.77500e-06	0.002146856957600047
3.77525e-06	0.002146725475882376
3.77550e-06	0.002146593994164705
3.77575e-06	0.0021464625124470336
3.77600e-06	0.0021463310307293627
3.77625e-06	0.002148385832003241
3.77650e-06	0.0021574592200120845
3.77675e-06	0.002166532608020928
3.77700e-06	0.0021756059960297714
3.77725e-06	0.0021846793840385997
3.77750e-06	0.0021937527720474435
3.77775e-06	0.002202826160056287
3.77800e-06	0.0022118995480651152
3.77825e-06	0.0022209729360739587
3.77850e-06	0.002230046324082802
3.77875e-06	0.0022391197120916304
3.77900e-06	0.0022473390020766584
3.77925e-06	0.0022552543126383158
3.77950e-06	0.0022631696231999736
3.77975e-06	0.0022710849337616175
3.78000e-06	0.0022790002443232754
3.78025e-06	0.0022869155548849327
3.78050e-06	0.002294830865446577
3.78075e-06	0.0023027461760082345
3.78100e-06	0.0023106614865698923
3.78125e-06	0.0023185767971315497
3.78150e-06	0.002325800331685143
3.78175e-06	0.0023308030696023076
3.78200e-06	0.002335805807519472
3.78225e-06	0.002340808545436628
3.78250e-06	0.0023458112833537924
3.78275e-06	0.0023508140212709565
3.78300e-06	0.0023558167591881123
3.78325e-06	0.0023608194971052768
3.78350e-06	0.0023658222350224412
3.78375e-06	0.0023708249729396057
3.78400e-06	0.0023758277108567615
3.78425e-06	0.0023808304487739256
3.78450e-06	0.00238583318669109
3.78475e-06	0.002390835924608246
3.78500e-06	0.0023958386625254104
3.78525e-06	0.002400841400442575
3.78550e-06	0.002405844138359739
3.78575e-06	0.002410846876276895
3.78600e-06	0.002415849614194059
3.78625e-06	0.0024208523521112237
3.78650e-06	0.0024258550900283795
3.78675e-06	0.002430857827945544
3.78700e-06	0.0024358605658627084
3.78725e-06	0.0024408633037798643
3.78750e-06	0.002444131485621704
3.78775e-06	0.0024467823268996686
3.78800e-06	0.0024494331681776333
3.78825e-06	0.002452084009455593
3.78850e-06	0.002454734850733558
3.78875e-06	0.0024573856920115226
3.78900e-06	0.002460036533289483
3.78925e-06	0.0024626873745674472
3.78950e-06	0.002465338215845412
3.78975e-06	0.0024679890571233766
3.79000e-06	0.002470639898401337
3.79025e-06	0.0024732907396793017
3.79050e-06	0.0024759415809572664
3.79075e-06	0.0024785924222352263
3.79100e-06	0.002481243263513191
3.79125e-06	0.0024838941047911557
3.79150e-06	0.002486544946069116
3.79175e-06	0.002489195787347081
3.79200e-06	0.0024918466286250455
3.79225e-06	0.0024944974699030098
3.79250e-06	0.00249714831118097
3.79275e-06	0.002499799152458935
3.79300e-06	0.0025024499937368995
3.79325e-06	0.0025042712830875714
3.79350e-06	0.0025034294761344194
3.79375e-06	0.002502587669181267
3.79400e-06	0.002501745862228115
3.79425e-06	0.0025009040552749643
3.79450e-06	0.002500062248321812
3.79475e-06	0.00249922044136866
3.79500e-06	0.0024983786344155087
3.79525e-06	0.0024975368274623567
3.79550e-06	0.0024966950205092043
3.79575e-06	0.0024958532135560536
3.79600e-06	0.0024950114066029016
3.79625e-06	0.002494169599649749
3.79650e-06	0.002493327792696597
3.79675e-06	0.002492485985743446
3.79700e-06	0.0024914137601409017
3.79725e-06	0.002489601825505858
3.79750e-06	0.0024877898908708175
3.79775e-06	0.002485977956235774
3.79800e-06	0.0024841660216007306
3.79825e-06	0.002482354086965687
3.79850e-06	0.0024805421523306464
3.79875e-06	0.002478730217695603
3.79900e-06	0.002476918283060559
3.79925e-06	0.002475106348425519
3.79950e-06	0.0024732944137904754
3.79975e-06	0.0024714824791554316
3.80000e-06	0.002469670544520391
3.80025e-06	0.002467858609885348
3.80050e-06	0.002466046675250304
3.80075e-06	0.002466583605356167
3.80100e-06	0.002474661055596042
3.80125e-06	0.002482738505835931
3.80150e-06	0.002490815956075819
3.80175e-06	0.0024988934063156945
3.80200e-06	0.002506970856555583
3.80225e-06	0.0025150483067954716
3.80250e-06	0.0025231257570353604
3.80275e-06	0.0025312032072752353
3.80300e-06	0.002539280657515124
3.80325e-06	0.0025473581077550124
3.80350e-06	0.0025554355579948877
3.80375e-06	0.002563513008234776
3.80400e-06	0.002576197422009197
3.80425e-06	0.0026036714916904628
3.80450e-06	0.002631145561371775
3.80475e-06	0.0026586196310530875
3.80500e-06	0.0026860937007344
3.80525e-06	0.0027135677704156654
3.80550e-06	0.0027410418400969777
3.80575e-06	0.00276851590977829
3.80600e-06	0.002795989979459556
3.80625e-06	0.002823464049140868
3.80650e-06	0.0028509381188221803
3.80675e-06	0.0028784121885034927
3.80700e-06	0.0029058862581847586
3.80725e-06	0.0029347925213908184
3.80750e-06	0.0029682965308704752
3.80775e-06	0.0030018005403500752
3.80800e-06	0.003035304549829732
3.80825e-06	0.003068808559309389
3.80850e-06	0.003102312568788989
3.80875e-06	0.0031358165782686457
3.80900e-06	0.0031693205877483025
3.80925e-06	0.003200876396026539
3.80950e-06	0.0032261779274493792
3.80975e-06	0.0032514794588722625
3.81000e-06	0.0032767809902951458
3.81025e-06	0.0033020825217179865
3.81050e-06	0.00332738405314087
3.81075e-06	0.003352685584563753
3.81100e-06	0.0033779871159866364
3.81125e-06	0.003397196372395011
3.81150e-06	0.003396847702962552
3.81175e-06	0.0033964990335300935
3.81200e-06	0.0033961503640976354
3.81225e-06	0.003395801694665177
3.81250e-06	0.003395453025232718
3.81275e-06	0.00339510435580026
3.81300e-06	0.0033947556863678013
3.81325e-06	0.0033944070169353428
3.81350e-06	0.003394058347502884
3.81375e-06	0.0033937096780704257
3.81400e-06	0.0033706088453384878
3.81425e-06	0.003339410359539681
3.81450e-06	0.0033082118737409274
3.81475e-06	0.0032770133879421203
3.81500e-06	0.0032458149021433666
3.81525e-06	0.003214616416344507
3.81550e-06	0.0031834179305457533
3.81575e-06	0.0031522194447469996
3.81600e-06	0.00312102095894814
3.81625e-06	0.0030898224731493863
3.81650e-06	0.0030551109482547293
3.81675e-06	0.0030091215742898063
3.81700e-06	0.0029631322003248837
3.81725e-06	0.002917142826359805
3.81750e-06	0.0028711534523948824
3.81775e-06	0.0028251640784299594
3.81800e-06	0.002779174704464881
3.81825e-06	0.0027335202696820646
3.81850e-06	0.002688941084402712
3.81875e-06	0.0026443618991232086
3.81900e-06	0.0025997827138438566
3.81925e-06	0.002555203528564504
3.81950e-06	0.0025106243432850006
3.81975e-06	0.0024660451580056485
3.82000e-06	0.002424884625321213
3.82025e-06	0.002394698934343604
3.82050e-06	0.0023645132433660968
3.82075e-06	0.0023343275523884876
3.82100e-06	0.0023041418614109803
3.82125e-06	0.002273956170433473
3.82150e-06	0.0022437704794558634
3.82175e-06	0.0022135847884783566
3.82200e-06	0.0021833990975008493
3.82225e-06	0.002155905169474614
3.82250e-06	0.0021370525618171024
3.82275e-06	0.00211819995415959
3.82300e-06	0.0020993473465020143
3.82325e-06	0.0020804947388445025
3.82350e-06	0.0020616421311869903
3.82375e-06	0.0020427895235294144
3.82400e-06	0.0020239369158719022
3.82425e-06	0.0020050843082143905
3.82450e-06	0.001987951041753066
3.82475e-06	0.001976337346802126
3.82500e-06	0.001964723651851147
3.82525e-06	0.0019531099569002073
3.82550e-06	0.0019414962619492674
3.82575e-06	0.0019298825669982883
3.82600e-06	0.0019182688720473485
3.82625e-06	0.0019066551770964087
3.82650e-06	0.0018950414821454296
3.82675e-06	0.0018834277871944897
3.82700e-06	0.00187181409224355
3.82725e-06	0.0018602003972925708
3.82750e-06	0.001848586702341631
3.82775e-06	0.0018405332734477968
3.82800e-06	0.0018337469679904211
3.82825e-06	0.0018269606625330684
3.82850e-06	0.0018201743570757157
3.82875e-06	0.00181338805161834
3.82900e-06	0.0018066017461609875
3.82925e-06	0.0017998154407036118
3.82950e-06	0.001793029135246259
3.82975e-06	0.0017862428297889064
3.83000e-06	0.0017794565243315307
3.83025e-06	0.001772670218874178
3.83050e-06	0.0017658839134168255
3.83075e-06	0.00175972037205641
3.83100e-06	0.0017565408151531076
3.83125e-06	0.0017565225379475807
3.83150e-06	0.001756504260742054
3.83175e-06	0.0017581941691523623
3.83200e-06	0.0017653678365037672
3.83225e-06	0.0017725415038551964
3.83250e-06	0.0017813083594828915
3.83275e-06	0.0017951898000677497
3.83300e-06	0.001809071240652655
3.83325e-06	0.0018249262630538417
3.83350e-06	0.0018471170412597089
3.83375e-06	0.001869307819465501
3.83400e-06	0.0018932823790377164
3.83425e-06	0.0019229833812904158
3.83450e-06	0.0019526843835430143
3.83475e-06	0.0019848141998126917
3.83500e-06	0.0020247411960013315
3.83525e-06	0.0020646681921898356
3.83550e-06	0.00210459518837834
3.83575e-06	0.0021445221845669796
3.83600e-06	0.002184449180755484
3.83625e-06	0.0022243761769439882
3.83650e-06	0.002266234802954757
3.83675e-06	0.00231429450700305
3.83700e-06	0.002362354211051343
3.83725e-06	0.002410413915099799
3.83750e-06	0.002458473619148092
3.83775e-06	0.0025065333231965477
3.83800e-06	0.002554593027244841
3.83825e-06	0.002601896844361863
3.83850e-06	0.00264677405064782
3.83875e-06	0.0026916512569336243
3.83900e-06	0.002736528463219429
3.83925e-06	0.002781405669505386
3.83950e-06	0.0028262828757911907
3.83975e-06	0.002871160082076995
3.84000e-06	0.0029160372883629522
3.84025e-06	0.002948280287325931
3.84050e-06	0.0029760266840860704
3.84075e-06	0.003003773080846304
3.84100e-06	0.003031519477606444
3.84125e-06	0.0030592658743665833
3.84150e-06	0.003087012271126817
3.84175e-06	0.0031147586678869563
3.84200e-06	0.0031358309740086954
3.84225e-06	0.0031354775616001178
3.84250e-06	0.00313512414919154
3.84275e-06	0.0031347707367829613
3.84300e-06	0.0031344173243743833
3.84325e-06	0.0031340639119658057
3.84350e-06	0.003133710499557227
3.84375e-06	0.0031333570871486492
3.84400e-06	0.0031330036747400716
3.84425e-06	0.0031326502623314927
3.84450e-06	0.0031125430983628194
3.84475e-06	0.003085405436912027
3.84500e-06	0.0030582677754611423
3.84525e-06	0.0030311301140103497
3.84550e-06	0.0030039924525595576
3.84575e-06	0.002976854791108673
3.84600e-06	0.0029497171296578805
3.84625e-06	0.0029225794682069964
3.84650e-06	0.002895441806756204
3.84675e-06	0.002865430041946187
3.84700e-06	0.0028261915924938756
3.84725e-06	0.0027869531430416965
3.84750e-06	0.002747714693589518
3.84775e-06	0.002708476244137206
3.84800e-06	0.002669237794685027
3.84825e-06	0.0026299993452328484
3.84850e-06	0.0025912616336896256
3.84875e-06	0.002554131432454212
3.84900e-06	0.0025170012312187985
3.84925e-06	0.002479871029983259
3.84950e-06	0.0024427408287478456
3.84975e-06	0.002405610627512432
3.85000e-06	0.0023684804262768928
3.85025e-06	0.002334675592757953
3.85050e-06	0.0023115461300942616
3.85075e-06	0.002288416667430649
3.85100e-06	0.002265287204767036
3.85125e-06	0.002242157742103345
3.85150e-06	0.0022190282794397327
3.85175e-06	0.0021958988167761198
3.85200e-06	0.002172769354112429
3.85225e-06	0.002149639891448816
3.85250e-06	0.0021265104287852034
3.85275e-06	0.0021033809661215124
3.85300e-06	0.0020886396893453497
3.85325e-06	0.0020768838262294467
3.85350e-06	0.0020651279631135042
3.85375e-06	0.0020533720999976013
3.85400e-06	0.0020416162368816983
3.85425e-06	0.0020298603737657554
3.85450e-06	0.0020181045106498524
3.85475e-06	0.00200634864753391
3.85500e-06	0.001994592784418007
3.85525e-06	0.001982836921302104
3.85550e-06	0.001972726339171707
3.85575e-06	0.0019678975743249788
3.85600e-06	0.0019630688094782506
3.85625e-06	0.0019582400446315064
3.85650e-06	0.001953411279784778
3.85675e-06	0.00194858251493805
3.85700e-06	0.0019437537500913054
3.85725e-06	0.0019389249852445772
3.85750e-06	0.001934096220397849
3.85775e-06	0.0019292674555511046
3.85800e-06	0.0019244386907043764
3.85825e-06	0.0019196099258576482
3.85850e-06	0.0019147811610109038
3.85875e-06	0.0019099523961641756
3.85900e-06	0.001905123631317431
3.85925e-06	0.0019002948664707028
3.85950e-06	0.001899144386952515
3.85975e-06	0.0018993030347488349
3.86000e-06	0.0018994616825451542
3.86025e-06	0.0018996203303414737
3.86050e-06	0.0018997789781377936
3.86075e-06	0.001899937625934113
3.86100e-06	0.0019000962737304324
3.86125e-06	0.0019002549215267524
3.86150e-06	0.0019004135693230716
3.86175e-06	0.0019005722171193912
3.86200e-06	0.001900730864915711
3.86225e-06	0.0019008895127120304
3.86250e-06	0.0019010481605083497
3.86275e-06	0.0019012068083046696
3.86300e-06	0.0019013654561009891
3.86325e-06	0.0019034894109125479
3.86350e-06	0.0019119225570718352
3.86375e-06	0.0019203557032311225
3.86400e-06	0.0019287888493904385
3.86425e-06	0.0019372219955497258
3.86450e-06	0.0019456551417090131
3.86475e-06	0.001954088287868329
3.86500e-06	0.0019625214340276164
3.86525e-06	0.0019709545801869038
3.86550e-06	0.0019793877263462197
3.86575e-06	0.001987820872505507
3.86600e-06	0.0019962540186647944
3.86625e-06	0.0020078213962233925
3.86650e-06	0.002020504268521362
3.86675e-06	0.002033187140819331
3.86700e-06	0.0020458700131173436
3.86725e-06	0.0020585528854153126
3.86750e-06	0.002071235757713325
3.86775e-06	0.002083918630011294
3.86800e-06	0.0020966015023092636
3.86825e-06	0.0021092843746072757
3.86850e-06	0.002121967246905245
3.86875e-06	0.0021346501192032142
3.86900e-06	0.0021467133539965198
3.86925e-06	0.0021567873771538783
3.86950e-06	0.0021668614003112364
3.86975e-06	0.0021769354234686287
3.87000e-06	0.002187009446625987
3.87025e-06	0.002197083469783345
3.87050e-06	0.0022071574929407372
3.87075e-06	0.0022172315160980953
3.87100e-06	0.0022273055392554534
3.87125e-06	0.0022373795624128457
3.87150e-06	0.002247216457129492
3.87175e-06	0.0022562921024868628
3.87200e-06	0.002265367747844264
3.87225e-06	0.002274443393201634
3.87250e-06	0.0022835190385590352
3.87275e-06	0.0022925946839164055
3.87300e-06	0.002301670329273776
3.87325e-06	0.0023107459746311773
3.87350e-06	0.0023198216199885476
3.87375e-06	0.002328897265345918
3.87400e-06	0.002338703886006394
3.87425e-06	0.0023508571441237395
3.87450e-06	0.002363010402241085
3.87475e-06	0.002375163660358472
3.87500e-06	0.0023873169184758175
3.87525e-06	0.002399470176593163
3.87550e-06	0.00241162343471055
3.87575e-06	0.0024237766928278956
3.87600e-06	0.0024359299509452417
3.87625e-06	0.0024480832090626285
3.87650e-06	0.002460236467179974
3.87675e-06	0.002472389725297361
3.87700e-06	0.0024845429834147066
3.87725e-06	0.002496594169615155
3.87750e-06	0.0025083176760945037
3.87775e-06	0.0025200411825738126
3.87800e-06	0.002531764689053122
3.87825e-06	0.002543488195532471
3.87850e-06	0.00255521170201178
3.87875e-06	0.002566935208491089
3.87900e-06	0.002578658714970438
3.87925e-06	0.002590382221449747
3.87950e-06	0.0026021057279290564
3.87975e-06	0.0026138292344084053
3.88000e-06	0.002625552740887714
3.88025e-06	0.0026372762473670236
3.88050e-06	0.002647154010744204
3.88075e-06	0.0026511064167523395
3.88100e-06	0.0026550588227604883
3.88125e-06	0.002659011228768624
3.88150e-06	0.0026629636347767598
3.88175e-06	0.0026669160407849085
3.88200e-06	0.0026708684467930443
3.88225e-06	0.00267482085280118
3.88250e-06	0.0026787732588093287
3.88275e-06	0.0026827256648174645
3.88300e-06	0.0026866780708256
3.88325e-06	0.002690630476833749
3.88350e-06	0.0026945828828418847
3.88375e-06	0.00269853528885002
3.88400e-06	0.002702487694858169
3.88425e-06	0.002706440100866305
3.88450e-06	0.0027103925068744403
3.88475e-06	0.0027095799556001703
3.88500e-06	0.0027070715229111325
3.88525e-06	0.002704563090222086
3.88550e-06	0.002702054657533048
3.88575e-06	0.0026995462248440103
3.88600e-06	0.002697037792154964
3.88625e-06	0.002694529359465926
3.88650e-06	0.0026920209267768877
3.88675e-06	0.0026895124940878416
3.88700e-06	0.0026870040613988034
3.88725e-06	0.0026844956287097655
3.88750e-06	0.002681987196020719
3.88775e-06	0.002679478763331681
3.88800e-06	0.0026769703306426433
3.88825e-06	0.002674461897953597
3.88850e-06	0.002671953465264559
3.88875e-06	0.0026693198564291293
3.88900e-06	0.002666284396761675
3.88925e-06	0.0026632489370942308
3.88950e-06	0.0026602134774267763
3.88975e-06	0.002657178017759332
3.89000e-06	0.0026541425580918878
3.89025e-06	0.0026511070984244333
3.89050e-06	0.002648071638756989
3.89075e-06	0.0026450361790895448
3.89100e-06	0.0026420007194220903
3.89125e-06	0.002640627951514326
3.89150e-06	0.002644592894394301
3.89175e-06	0.002648557837274289
3.89200e-06	0.002652522780154264
3.89225e-06	0.0026564877230342387
3.89250e-06	0.002660452665914227
3.89275e-06	0.002664417608794202
3.89300e-06	0.002668382551674177
3.89325e-06	0.0026723474945541652
3.89350e-06	0.00267631243743414
3.89375e-06	0.0026829170364238582
3.89400e-06	0.0026979956780674367
3.89425e-06	0.0027130743197110153
3.89450e-06	0.0027281529613546445
3.89475e-06	0.002743231602998223
3.89500e-06	0.002758310244641801
3.89525e-06	0.002773388886285431
3.89550e-06	0.002788467527929009
3.89575e-06	0.0028035461695725874
3.89600e-06	0.0028186248112162166
3.89625e-06	0.002833703452859795
3.89650e-06	0.0028500164513995114
3.89675e-06	0.002870292084673734
3.89700e-06	0.0028905677179478883
3.89725e-06	0.002910843351222043
3.89750e-06	0.0029311189844962657
3.89775e-06	0.00295139461777042
3.89800e-06	0.002971670251044643
3.89825e-06	0.002991945884318797
3.89850e-06	0.0030122215175929514
3.89875e-06	0.003032497150867174
