Time(s)	Current(A)
6.00000e-06	0.0020218073530144324
6.00025e-06	0.0020487911066172683
6.00050e-06	0.0020689581984786355
6.00075e-06	0.0020839621157939725
6.00100e-06	0.0020911658959086475
6.00125e-06	0.002098369676023298
6.00150e-06	0.0021000234863077956
6.00175e-06	0.002093292818061027
6.00200e-06	0.002086562149814281
6.00225e-06	0.0020744940899494846
6.00250e-06	0.0020543626987867426
6.00275e-06	0.002034231307624069
6.00300e-06	0.0020097958799898947
6.00325e-06	0.001978858236578531
6.00350e-06	0.0019479205931672721
6.00375e-06	0.0019135467683949023
6.00400e-06	0.0018739818183136929
6.00425e-06	0.0018344168682324837
6.00450e-06	0.00179178722780303
6.00475e-06	0.0017445276828493262
6.00500e-06	0.0016972681378956223
6.00525e-06	0.0016500085929417583
6.00550e-06	0.0016027490479880544
6.00575e-06	0.0015545129168111796
6.00600e-06	0.0015048014323489885
6.00625e-06	0.0014550899478869657
6.00650e-06	0.0014053784634249428
6.00675e-06	0.0013556669789627517
6.00700e-06	0.0013075072690823053
6.00725e-06	0.001261691863956886
6.00750e-06	0.0012158764588313113
6.00775e-06	0.0011722539369114495
6.00800e-06	0.001131944258613823
6.00825e-06	0.001093986510787599
6.00850e-06	0.0010595818832744585
6.00875e-06	0.0010276419744761473
6.00900e-06	0.0009994255780177003
6.00925e-06	0.0009735891873775223
6.00950e-06	0.0009513483311807156
6.00975e-06	0.0009316317291994075
6.01000e-06	0.0009157285813305954
6.01025e-06	0.0009024965094545863
6.01050e-06	0.0008932996990302584
6.01075e-06	0.0008866728724844017
6.01100e-06	0.0008839285849991356
6.01125e-06	0.0008835295395148657
6.01150e-06	0.0008866735099037848
6.01175e-06	0.0008920813478363196
6.01200e-06	0.0009009092672096084
6.01225e-06	0.0009119213257051818
6.01250e-06	0.0009262330179169588
6.01275e-06	0.0009429125986489855
6.01300e-06	0.0009631694079184427
6.01325e-06	0.0009834262171878312
6.01350e-06	0.0010059704910479364
6.01375e-06	0.0010319704949993157
6.01400e-06	0.001057970498950607
6.01425e-06	0.0010862591266729395
6.01450e-06	0.0011180052356892867
6.01475e-06	0.0011497513447055263
6.01500e-06	0.001181497453721766
6.01525e-06	0.0012132435627381132
6.01550e-06	0.0012449896717543528
6.01575e-06	0.0012773218777884963
6.01600e-06	0.001310539515277848
6.01625e-06	0.0013437571527670875
6.01650e-06	0.0013769747902564395
6.01675e-06	0.0014101924277456787
6.01700e-06	0.0014434100652349182
6.01725e-06	0.0014750807843351866
6.01750e-06	0.0015044145350525285
6.01775e-06	0.0015337482857698704
6.01800e-06	0.0015608667965573261
6.01825e-06	0.0015846386888590644
6.01850e-06	0.0016084105811608026
6.01875e-06	0.001628379295616449
6.01900e-06	0.0016426024539759766
6.01925e-06	0.0016522352583278345
6.01950e-06	0.0016549332998265047
6.01975e-06	0.0016531842388195462
6.02000e-06	0.001644716828594125
6.02025e-06	0.001631974430954702
6.02050e-06	0.0016127737026798202
6.02075e-06	0.0015887292467660203
6.02100e-06	0.0015573672501041486
6.02125e-06	0.0015208454405178575
6.02150e-06	0.0014765285722199517
6.02175e-06	0.0014276009947082142
6.02200e-06	0.00137170790322331
6.02225e-06	0.001311771312631046
6.02250e-06	0.001245726106590902
6.02275e-06	0.0011757403830218852
6.02300e-06	0.001099801620856022
6.02325e-06	0.0010201837479120962
6.02350e-06	0.000935007750101658
6.02375e-06	0.0008469558491377427
6.02400e-06	0.0007545592491986497
6.02425e-06	0.0006601011977804896
6.02450e-06	0.0005625288599441319
6.02475e-06	0.00046341870135231704
6.02500e-06	0.0003619853184003189
6.02525e-06	0.00025960762660085526
6.02550e-06	0.00015580334375678864
6.02575e-06	5.199906091237031e-05
6.02600e-06	-5.159427810722593e-05
6.02625e-06	-0.00015435366277779755
6.02650e-06	-0.00025560266255808203
6.02675e-06	-0.0003548479166423749
6.02700e-06	-0.00045165920706068997
6.02725e-06	-0.0005455240544994318
6.02750e-06	-0.0006358089797608028
6.02775e-06	-0.0007218393673982958
6.02800e-06	-0.0008029407534047215
6.02825e-06	-0.0008784387438201882
6.02850e-06	-0.0009476815487015841
6.02875e-06	-0.001010131092695295
6.02900e-06	-0.0010654583889489993
6.02925e-06	-0.001113498013731817
6.02950e-06	-0.001154125996660673
6.02975e-06	-0.0011872141180991965
6.03000e-06	-0.0012126343201988657
6.03025e-06	-0.0012302588026170444
6.03050e-06	-0.0012399737205476518
6.03075e-06	-0.0012417365076645823
6.03100e-06	-0.0012356357037913409
6.03125e-06	-0.0012218622442181372
6.03150e-06	-0.0012006329722788968
6.03175e-06	-0.0011721620448041361
6.03200e-06	-0.0011366638988165982
6.03225e-06	-0.001094352924971719
6.03250e-06	-0.0010454523463820178
6.03275e-06	-0.0009902300405304492
6.03300e-06	-0.0009290359417884487
6.03325e-06	-0.0008622840907216266
6.03350e-06	-0.0007904047391537265
6.03375e-06	-0.0007138266101887653
6.03400e-06	-0.000632978286833812
6.03425e-06	-0.0005482884448303027
6.03450e-06	-0.0004601913133887897
6.03475e-06	-0.00036914893635013363
6.03500e-06	-0.00027567483290702206
6.03525e-06	-0.00018032261747924415
6.03550e-06	-8.365601963210406e-05
6.03575e-06	1.3732506640237138e-05
6.03600e-06	0.00011132464963289009
6.03625e-06	0.00020860342130189034
6.03650e-06	0.00030489761623480477
6.03675e-06	0.0003996687360926773
6.03700e-06	0.000492301153943122
6.03725e-06	0.0005821541155685651
6.03750e-06	0.0006685806524199822
6.03775e-06	0.000750934455983645
6.03800e-06	0.0008285692229189766
6.03825e-06	0.0009008388131660678
6.03850e-06	0.0009671016193085751
6.03875e-06	0.0010267683148313068
6.03900e-06	0.001079408428275822
6.03925e-06	0.0011247897010386175
6.03950e-06	0.001162786303502562
6.03975e-06	0.001193291738334662
6.04000e-06	0.0012161996256117276
6.04025e-06	0.0012314035380485608
6.04050e-06	0.001238800109590791
6.04075e-06	0.0012383186712142961
6.04100e-06	0.00122998799034238
6.04125e-06	0.0012139611734913916
6.04150e-06	0.0011904578151959205
6.04175e-06	0.0011597097447291016
6.04200e-06	0.0011219487223101657
6.04225e-06	0.0010774065762177614
6.04250e-06	0.0010263171315040296
6.04275e-06	0.0009689344694170581
6.04300e-06	0.0009055750993019222
6.04325e-06	0.0008366332741272433
6.04350e-06	0.0007625449705757914
6.04375e-06	0.0006837537897291863
6.04400e-06	0.0006007032734660527
6.04425e-06	0.0005138370228672021
6.04450e-06	0.0004235996346661742
6.04475e-06	0.00033044861403312844
6.04500e-06	0.0002348804529280569
6.04525e-06	0.00013744031730406598
6.04550e-06	3.869946844399814e-05
6.04575e-06	-6.072674267459806e-05
6.04600e-06	-0.0001603210254758611
6.04625e-06	-0.0002592987358950382
6.04650e-06	-0.0003573449932302652
6.04675e-06	-0.00045434700588536687
6.04700e-06	-0.0005487454266664953
6.04725e-06	-0.0006403073934300902
6.04750e-06	-0.0007283772110018153
6.04775e-06	-0.000812296306065922
6.04800e-06	-0.0008914061753539285
6.04825e-06	-0.0009650484778834539
6.04850e-06	-0.001032693068162534
6.04875e-06	-0.001094271819635401
6.04900e-06	-0.0011501791375651365
6.04925e-06	-0.001200711689053009
6.04950e-06	-0.0012446330615037298
6.04975e-06	-0.0012834416224339223
6.05000e-06	-0.0013174371276345848
6.05025e-06	-0.001344161428913176
6.05050e-06	-0.001365956686880796
6.05075e-06	-0.0013803055155802357
6.05100e-06	-0.0013902882221085273
6.05125e-06	-0.001393674918443467
6.05150e-06	-0.001392946107389242
6.05175e-06	-0.0013859998961741333
6.05200e-06	-0.0013750085861815647
6.05225e-06	-0.0013579062440826134
6.05250e-06	-0.0013369824786379613
6.05275e-06	-0.00131028559316757
6.05300e-06	-0.0012804161703029154
6.05325e-06	-0.001245753915682572
6.05350e-06	-0.0012083723863507674
6.05375e-06	-0.0011668827805589007
6.05400e-06	-0.0011225007571573997
6.05425e-06	-0.001073749085979589
6.05450e-06	-0.0010249974148019434
6.05475e-06	-0.0009738552819981925
6.05500e-06	-0.0009191018189037594
6.05525e-06	-0.0008643483558093263
6.05550e-06	-0.0008085764479381144
6.05575e-06	-0.0007512659500176586
6.05600e-06	-0.0006939554520972029
6.05625e-06	-0.000636644954176553
6.05650e-06	-0.0005805108862307266
6.05675e-06	-0.0005245100191039781
6.05700e-06	-0.0004685091519770398
6.05725e-06	-0.00041386172224734755
6.05750e-06	-0.00036216515351855357
6.05775e-06	-0.00031289739130963804
6.05800e-06	-0.0002664440906026393
6.05825e-06	-0.00022319079304820497
6.05850e-06	-0.0001834668772652873
6.05875e-06	-0.0001473935346389687
6.05900e-06	-0.000114866962382659
6.05925e-06	-8.579489099529439e-05
6.05950e-06	-6.023073240366716e-05
6.05975e-06	-3.828917467625318e-05
6.06000e-06	-2.008486842299222e-05
6.06025e-06	-5.732388543157254e-06
6.06050e-06	4.6888869422264115e-06
6.06075e-06	1.1230000023590172e-05
6.06100e-06	1.4082923846647857e-05
6.06125e-06	1.3432402480551004e-05
6.06150e-06	9.37190090684019e-06
6.06175e-06	1.9565125491031346e-06
6.06200e-06	-8.758647888495837e-06
6.06225e-06	-2.2718417784474494e-05
6.06250e-06	-3.98455863772658e-05
6.06275e-06	-5.998125470880339e-05
6.06300e-06	-8.287825511956362e-05
6.06325e-06	-0.0001082939664061446
6.06350e-06	-0.0001360429557678015
6.06375e-06	-0.0001659638410468399
6.06400e-06	-0.0001978952327474756
6.06425e-06	-0.00023167572115010012
6.06450e-06	-0.00026738573311382803
6.06475e-06	-0.00030441817458286285
6.06500e-06	-0.0003423621722604963
6.06525e-06	-0.0003816832807488623
6.06550e-06	-0.0004210043892373615
6.06575e-06	-0.0004606083464141506
6.06600e-06	-0.0005006396101935337
6.06625e-06	-0.0005406708739730525
6.06650e-06	-0.0005807021377524358
6.06675e-06	-0.0006195543557737034
6.06700e-06	-0.0006566253598180936
6.06725e-06	-0.0006936963638623582
6.06750e-06	-0.0007307673679067483
6.06775e-06	-0.0007658349258533531
6.06800e-06	-0.000797875827568289
6.06825e-06	-0.0008279356321819498
6.06850e-06	-0.0008550025437526776
6.06875e-06	-0.0008797729800362616
6.06900e-06	-0.0008989687470928584
6.06925e-06	-0.000912780644334735
6.06950e-06	-0.0009210978466105842
6.06975e-06	-0.0009240137190085103
6.07000e-06	-0.0009216216266166025
6.07025e-06	-0.0009140148881557711
6.07050e-06	-0.0009011977968020875
6.07075e-06	-0.0008828896345445792
6.07100e-06	-0.0008586315363527418
6.07125e-06	-0.0008282353372136742
6.07150e-06	-0.0007918938066265887
6.07175e-06	-0.0007499277038269252
6.07200e-06	-0.0007026577066593938
6.07225e-06	-0.000650404376552959
6.07250e-06	-0.0005934325642337338
6.07275e-06	-0.0005318286126855958
6.07300e-06	-0.0004655672313329837
6.07325e-06	-0.0003947927783324478
6.07350e-06	-0.00031988813123718225
6.07375e-06	-0.0002413163264422639
6.07400e-06	-0.00015954032141427422
6.07425e-06	-7.502303033785838e-05
6.07450e-06	1.1807613433821254e-05
6.07475e-06	0.00010063550138120752
6.07500e-06	0.00019143686928501391
6.07525e-06	0.00028352811183495483
6.07550e-06	0.0003759952765583645
6.07575e-06	0.0004690303563300173
6.07600e-06	0.0005620654361019853
6.07625e-06	0.0006538451120106908
6.07650e-06	0.0007437282178400489
6.07675e-06	0.0008336113236697114
6.07700e-06	0.0009211918337396768
6.07725e-06	0.0010052937546871092
6.07750e-06	0.001086537229735184
6.07775e-06	0.0011634623789226297
6.07800e-06	0.0012365616303272242
6.07825e-06	0.001303881002064992
6.07850e-06	0.0013669177126119523
6.07875e-06	0.0014234844995642693
6.07900e-06	0.0014766135750346693
6.07925e-06	0.0015245492136114153
6.07950e-06	0.0015690460278929596
6.07975e-06	0.001608347724126544
6.08000e-06	0.0016437990406889878
6.08025e-06	0.001673433492182709
6.08050e-06	0.0016991259423939171
6.08075e-06	0.0017188631124717775
6.08100e-06	0.001735381957532191
6.08125e-06	0.0017470387983297047
6.08150e-06	0.0017549016960813019
6.08175e-06	0.0017570329889882094
6.08200e-06	0.0017591642818951096
6.08225e-06	0.0017567496251244476
6.08250e-06	0.0017474672882436526
6.08275e-06	0.0017381849513628893
6.08300e-06	0.00172537224585409
6.08325e-06	0.001707226123979577
6.08350e-06	0.0016890800021051255
6.08375e-06	0.0016680682319572028
6.08400e-06	0.001642727255142688
6.08425e-06	0.001617386278328259
6.08450e-06	0.0015892896924703244
6.08475e-06	0.0015570301389687628
6.08500e-06	0.001524770585467201
6.08525e-06	0.0014925110319655298
6.08550e-06	0.0014602514784639682
6.08575e-06	0.0014279919249624063
6.08600e-06	0.0013937352575741785
6.08625e-06	0.001359252467755653
6.08650e-06	0.0013247696779371274
6.08675e-06	0.001290286888118485
6.08700e-06	0.0012558040982999594
6.08725e-06	0.0012227547775439964
6.08750e-06	0.0011918710344266388
6.08775e-06	0.0011609872913093857
6.08800e-06	0.001132144895622339
6.08825e-06	0.0011063864146586442
6.08850e-06	0.0010806279336950365
6.08875e-06	0.0010548694527313415
6.08900e-06	0.001029110971767734
6.08925e-06	0.0010033524908041264
6.08950e-06	0.0009753029749722708
6.08975e-06	0.0009437923353469797
6.09000e-06	0.0009122816957216887
6.09025e-06	0.0008796037538003175
6.09050e-06	0.0008451623390454797
6.09075e-06	0.0008090688837021896
6.09100e-06	0.0007704796492381883
6.09125e-06	0.0007295566370643026
6.09150e-06	0.0006851079284145779
6.09175e-06	0.000638819786087957
6.09200e-06	0.0005897527652060359
6.09225e-06	0.0005393632471048222
6.09250e-06	0.00048697579930974535
6.09275e-06	0.0004335067551467335
6.09300e-06	0.000377464780195359
6.09325e-06	0.0003191214761203802
6.09350e-06	0.0002587169252506676
6.09375e-06	0.00019664113371468906
6.09400e-06	0.00013328401138755933
6.09425e-06	6.903535358146447e-05
6.09450e-06	4.214280746471705e-06
6.09475e-06	-6.109727161978339e-05
6.09500e-06	-0.00012710460896397246
6.09525e-06	-0.00019365411647721936
6.09550e-06	-0.00026020362399024075
6.09575e-06	-0.0003264656543354552
6.09600e-06	-0.000392293367450819
6.09625e-06	-0.000457153964844826
6.09650e-06	-0.000520553516281131
6.09675e-06	-0.0005826498940339814
6.09700e-06	-0.0006427775346426795
6.09725e-06	-0.0007012410907796085
6.09750e-06	-0.0007571906727994293
6.09775e-06	-0.0008108262527250777
6.09800e-06	-0.0008609660116939734
6.09825e-06	-0.0009082512311999828
6.09850e-06	-0.0009512240263995856
6.09875e-06	-0.000992436513570125
6.09900e-06	-0.0010309896592842292
6.09925e-06	-0.0010695428049983333
6.09950e-06	-0.001106451706138396
6.09975e-06	-0.0011408766057923615
6.10000e-06	-0.001175301505446327
6.10025e-06	-0.0012097264051004093
6.10050e-06	-0.0012441513047543747
6.10075e-06	-0.0012785762044083403
6.10100e-06	-0.0013098412696950592
6.10125e-06	-0.001340748563984682
6.10150e-06	-0.0013716558582744095
6.10175e-06	-0.0014025631525640323
6.10200e-06	-0.001433470446853655
6.10225e-06	-0.0014635041688140177
6.10250e-06	-0.0014922181631630649
6.10275e-06	-0.001520932157512112
6.10300e-06	-0.0015496461518612567
6.10325e-06	-0.0015783601462103039
6.10350e-06	-0.001607074140559351
6.10375e-06	-0.0016357881349084954
6.10400e-06	-0.0016645021292575426
6.10425e-06	-0.0016932161236065898
6.10450e-06	-0.0017219301179557344
6.10475e-06	-0.0017506441123047816
6.10500e-06	-0.0017756712547637365
6.10525e-06	-0.001800280954875222
6.10550e-06	-0.0018248906549866242
6.10575e-06	-0.0018495003550981098
6.10600e-06	-0.001874110055209512
6.10625e-06	-0.0018987197553209142
6.10650e-06	-0.0019233294554323998
6.10675e-06	-0.001947939155543802
6.10700e-06	-0.0019725488556552044
6.10725e-06	-0.00199715855576669
6.10750e-06	-0.0020165730531122392
6.10775e-06	-0.00202813902743939
6.10800e-06	-0.00203970500176658
6.10825e-06	-0.0020512709760937306
6.10850e-06	-0.002062836950420881
6.10875e-06	-0.002074402924748071
6.10900e-06	-0.002085968899075222
6.10925e-06	-0.0020975348734023724
6.10950e-06	-0.0021091008477295624
6.10975e-06	-0.002120666822056713
6.11000e-06	-0.002132232796383903
6.11025e-06	-0.0021437987707110537
6.11050e-06	-0.002155364745038204
6.11075e-06	-0.002166930719365394
6.11100e-06	-0.002161890560163358
6.11125e-06	-0.0021549701780588207
6.11150e-06	-0.0021480497959542604
6.11175e-06	-0.002141129413849723
6.11200e-06	-0.0021342090317451857
6.11225e-06	-0.002127288649640625
6.11250e-06	-0.002120368267536088
6.11275e-06	-0.0021134478854315506
6.11300e-06	-0.00210652750332699
6.11325e-06	-0.0020996071212224525
6.11350e-06	-0.0020926867391179156
6.11375e-06	-0.002085766357013355
6.11400e-06	-0.0020788459749088175
6.11425e-06	-0.002068433006280583
6.11450e-06	-0.0020527436996620437
6.11475e-06	-0.0020370543930435044
6.11500e-06	-0.0020213650864249117
6.11525e-06	-0.0020056757798063724
6.11550e-06	-0.001989986473187833
6.11575e-06	-0.0019742971665692405
6.11600e-06	-0.001958607859950701
6.11625e-06	-0.0019429185533321618
6.11650e-06	-0.0019283408653124115
6.11675e-06	-0.0019138890398689781
6.11700e-06	-0.001899437214425545
6.11725e-06	-0.0018849853889820628
6.11750e-06	-0.0018705335635386296
6.11775e-06	-0.0018560817380951964
6.11800e-06	-0.0018416299126517142
6.11825e-06	-0.0018271780872082808
6.11850e-06	-0.0018126396741779763
6.11875e-06	-0.001797970451110315
6.11900e-06	-0.001783301228042654
6.11925e-06	-0.0017642180627486202
6.11950e-06	-0.0017384666443145368
6.11975e-06	-0.0017093244148318738
6.12000e-06	-0.0016750596021201315
6.12025e-06	-0.00163786841554145
6.12050e-06	-0.0015962562826233604
6.12075e-06	-0.001550706460571545
6.12100e-06	-0.0014992078728626249
6.12125e-06	-0.0014429797831364334
6.12150e-06	-0.0013796067161856293
6.12175e-06	-0.0013122366564369465
6.12200e-06	-0.0012388282394989098
6.12225e-06	-0.0011621853385680517
6.12250e-06	-0.0010806560216100117
6.12275e-06	-0.0009957302831702887
6.12300e-06	-0.0009056734856807648
6.12325e-06	-0.000812195877556187
6.12350e-06	-0.000713550365075564
6.12375e-06	-0.000612912893973106
6.12400e-06	-0.0005082693419139751
6.12425e-06	-0.00040137150585415547
6.12450e-06	-0.0002927540668037176
6.12475e-06	-0.00018265576154859742
6.12500e-06	-7.109287613399443e-05
6.12525e-06	4.176293404410399e-05
6.12550e-06	0.00015526761089089132
6.12575e-06	0.00026843349058773054
6.12600e-06	0.0003810875352298437
6.12625e-06	0.0004923371923593747
6.12650e-06	0.0006014652060786176
6.12675e-06	0.0007084861313872155
6.12700e-06	0.0008123238254289983
6.12725e-06	0.0009132978340740993
6.12750e-06	0.001009945601424177
6.12775e-06	0.0011025986711531897
6.12800e-06	0.0011892168510742505
6.12825e-06	0.0012708338866646157
6.12850e-06	0.0013448955681813351
6.12875e-06	0.0014150062995411444
6.12900e-06	0.0014791482314847398
6.12925e-06	0.0015405941186880762
6.12950e-06	0.0015979670235363836
6.12975e-06	0.001652132731496258
6.13000e-06	0.0017014532467416244
6.13025e-06	0.0017462075189233989
6.13050e-06	0.0017840634532750815
6.13075e-06	0.0018219193876268924
6.13100e-06	0.0018559861315696562
6.13125e-06	0.0018843284506013087
6.13150e-06	0.0019126707696328652
6.13175e-06	0.0019374720555754936
6.13200e-06	0.0019569238140894076
6.13225e-06	0.0019763755726032554
6.13250e-06	0.0019922829905003373
6.13275e-06	0.0020028358842035555
6.13300e-06	0.0020133887779067382
6.13325e-06	0.002021312503845149
6.13350e-06	0.002025264280152239
6.13375e-06	0.002029216056459315
6.13400e-06	0.0020331678327663912
6.13425e-06	0.0020336032974364376
6.13450e-06	0.002028726581994894
6.13475e-06	0.00202384986655335
6.13500e-06	0.0020189731511117896
6.13525e-06	0.002014096435670246
6.13550e-06	0.0020092197202286857
6.13575e-06	0.002004343004787142
6.13600e-06	0.0019994662893455984
6.13625e-06	0.0019910889788260283
6.13650e-06	0.001982315314813475
6.13675e-06	0.0019735416508009215
6.13700e-06	0.0019647679867883386
6.13725e-06	0.0019559943227757852
6.13750e-06	0.001947220658763232
6.13775e-06	0.001938446994750649
6.13800e-06	0.0019300878960086235
6.13825e-06	0.001922355091410067
6.13850e-06	0.001914622286811484
6.13875e-06	0.0019068894822129275
6.13900e-06	0.001889834186212896
6.13925e-06	0.0018717233548116656
6.13950e-06	0.0018536125234104965
6.13975e-06	0.0018304344445928711
6.14000e-06	0.0017996011481150765
6.14025e-06	0.001765673072054579
6.14050e-06	0.0017270696349213147
6.14075e-06	0.0016844200557441676
6.14100e-06	0.0016356578683824504
6.14125e-06	0.0015821214810095045
6.14150e-06	0.001521372590035877
6.14175e-06	0.001456556506303832
6.14200e-06	0.0013855960125452708
6.14225e-06	0.0013113037100150576
6.14250e-06	0.0012319779604762187
6.14275e-06	0.0011491933096363647
6.14300e-06	0.00106118320991988
6.14325e-06	0.0009697269019270072
6.14350e-06	0.0008730643207268997
6.14375e-06	0.0007738672149701205
6.14400e-06	0.0006708411394482875
6.14425e-06	0.0005662098658134773
6.14450e-06	0.0004591535791618361
6.14475e-06	0.00035117259119555374
6.14500e-06	0.00024121148494381527
6.14525e-06	0.00012998088156473934
