Time(s)	Current(A)
1.10000e-05	0.000785453304529812
1.10003e-05	0.000827175362615254
1.10005e-05	0.0008749387331543106
1.10008e-05	0.0009228171827042091
1.10010e-05	0.0009756238263473596
1.10013e-05	0.0010285243455693807
1.10015e-05	0.0010868728758770283
1.10018e-05	0.0011453251835889188
1.10020e-05	0.0012099331000899394
1.10023e-05	0.0012746582727958878
1.10025e-05	0.0013393834455013975
1.10028e-05	0.0014096704375153684
1.10030e-05	0.0014800633748301498
1.10033e-05	0.001550456312144454
1.10035e-05	0.0016208492494592351
1.10038e-05	0.0016912421867740165
1.10040e-05	0.0017618612980068124
1.10043e-05	0.0018327241510597534
1.10045e-05	0.0019035870041126948
1.10047e-05	0.0019744498571651558
1.10050e-05	0.002045312710218097
1.10053e-05	0.0021161755632710384
1.10055e-05	0.002171045034570804
1.10058e-05	0.0022256098531037755
1.10060e-05	0.002280174671636747
1.10062e-05	0.002334739490169349
1.10065e-05	0.0023893043087023207
1.10068e-05	0.002443869127235292
1.10070e-05	0.0024984339457682636
1.10073e-05	0.0025529987643008656
1.10075e-05	0.002607563582833837
1.10078e-05	0.0026283162336636482
1.10080e-05	0.0026484248074231075
1.10083e-05	0.002668533381182703
1.10085e-05	0.0026886419549422987
1.10088e-05	0.002708750528701758
1.10090e-05	0.0027288591024613533
1.10093e-05	0.0027489676762209488
1.10095e-05	0.0027690762499804084
1.10098e-05	0.002789184823740004
1.10100e-05	0.0027786133898449103
1.10103e-05	0.0027674575423849357
1.10105e-05	0.002756301694924885
1.10108e-05	0.0027451458474648345
1.10110e-05	0.0027339900000048598
1.10113e-05	0.0027228341525448096
1.10115e-05	0.002711678305084759
1.10118e-05	0.0027005224576247843
1.10120e-05	0.002669756020770514
1.10123e-05	0.0026386160281273397
1.10125e-05	0.002607476035484377
1.10128e-05	0.0025763360428412026
1.10130e-05	0.0025451960501980285
1.10132e-05	0.0025140560575550655
1.10135e-05	0.0024829160649118913
1.10138e-05	0.002451776072268717
1.10140e-05	0.0024142394260920747
1.10143e-05	0.0023765809321262105
1.10145e-05	0.0023389224381603463
1.10147e-05	0.002301263944194737
1.10150e-05	0.002263605450228873
1.10153e-05	0.002225946956263009
1.10155e-05	0.0021909945450347126
1.10158e-05	0.0021589584096319203
1.10160e-05	0.0021269222742289107
1.10163e-05	0.002094886138825901
1.10165e-05	0.0020628500034231088
1.10168e-05	0.002030813868020099
1.10170e-05	0.0019987777326170896
1.10173e-05	0.001974682057541943
1.10175e-05	0.0019507376377332576
1.10178e-05	0.0019267932179245718
1.10180e-05	0.0019028487981160482
1.10183e-05	0.0018789043783073625
1.10185e-05	0.0018549599584986767
1.10188e-05	0.001831015538690153
1.10190e-05	0.0018070711188814673
1.10193e-05	0.0017835774013391663
1.10195e-05	0.0017600922690790772
1.10198e-05	0.001736607136818829
1.10200e-05	0.001713122004558581
1.10203e-05	0.0016896368722984921
1.10205e-05	0.001666151740038244
1.10208e-05	0.001642666607777996
1.10210e-05	0.001619181475517907
1.10213e-05	0.0015943141545850157
1.10215e-05	0.0015694205047860333
1.10217e-05	0.0015445268549872198
1.10220e-05	0.0015196332051882375
1.10223e-05	0.0014947395553892551
1.10225e-05	0.0014698459055904416
1.10228e-05	0.0014449522557914594
1.10230e-05	0.001420058605992477
1.10232e-05	0.0013955044349052066
1.10235e-05	0.001371316111301373
1.10238e-05	0.0013471277876975396
1.10240e-05	0.0013229394640937061
1.10243e-05	0.0012987511404900368
1.10245e-05	0.0012745628168862033
1.10248e-05	0.0012503744932823699
1.10250e-05	0.0012261861696787003
1.10253e-05	0.0012019978460748669
1.10255e-05	0.001183357249271191
1.10258e-05	0.0011648223293257937
1.10260e-05	0.0011462874093802705
1.10263e-05	0.0011277524894347474
1.10265e-05	0.0011092175694893498
1.10268e-05	0.0010906826495438266
1.10270e-05	0.0010721477295983035
1.10273e-05	0.001053612809652906
1.10275e-05	0.0010409916040952628
1.10278e-05	0.0010284830469753903
1.10280e-05	0.0010159744898556027
1.10283e-05	0.0010034659327357303
1.10285e-05	0.0009909573756158579
1.10288e-05	0.0009784488184960702
1.10290e-05	0.0009659402613761978
1.10293e-05	0.0009534317042563254
1.10295e-05	0.0009441065329399875
1.10298e-05	0.0009348420009129279
1.10300e-05	0.0009255774688858683
1.10302e-05	0.0009163129368588715
1.10305e-05	0.0009070484048318119
1.10308e-05	0.0008977838728047524
1.10310e-05	0.0008885193407777556
1.10313e-05	0.000879254808750696
1.10315e-05	0.0008699902767236364
1.10317e-05	0.0008607257446966395
1.10320e-05	0.0008514612126695799
1.10323e-05	0.0008421966806425203
1.10325e-05	0.0008329321486154607
1.10328e-05	0.000823667616588464
1.10330e-05	0.0008156254824887377
1.10333e-05	0.0008089006952229046
1.10335e-05	0.0008021759079571171
1.10338e-05	0.000795451120691284
1.10340e-05	0.0007887263334254509
1.10343e-05	0.0007820015461596634
1.10345e-05	0.0007752767588938304
1.10348e-05	0.0007685519716279973
1.10350e-05	0.0007618271843622097
1.10353e-05	0.0007551023970963766
1.10355e-05	0.0007483776098305435
1.10358e-05	0.0007416528225647561
1.10360e-05	0.000734928035298923
1.10363e-05	0.0007282032480330899
1.10365e-05	0.0007214784607673024
1.10368e-05	0.0007171224026324976
1.10370e-05	0.0007128114656550219
1.10373e-05	0.0007085005286775754
1.10375e-05	0.0007075597818466229
1.10378e-05	0.0007066832326809241
1.10380e-05	0.0007100160559014908
1.10383e-05	0.0007134290620991636
1.10385e-05	0.0007207537904062376
1.10387e-05	0.0007281530318462107
1.10390e-05	0.0007392584219266826
1.10393e-05	0.0007504344092373902
1.10395e-05	0.0007661871051328176
1.10398e-05	0.0007820269812742167
1.10400e-05	0.0008026869526497696
1.10402e-05	0.0008234387404648719
1.10405e-05	0.0008483713408623703
1.10408e-05	0.0008733835802105137
1.10410e-05	0.0009029117338407224
1.10413e-05	0.0009325259096655911
1.10415e-05	0.0009621400854906604
1.10418e-05	0.0009971040457139447
1.10420e-05	0.0010321699122548245
1.10423e-05	0.001067235778795942
1.10425e-05	0.0011072840935366951
1.10428e-05	0.0011474273173262542
1.10430e-05	0.001187570541116085
1.10433e-05	0.001227713764905916
1.10435e-05	0.001267856988695475
1.10438e-05	0.001308000212485306
1.10440e-05	0.0013495890002725222
1.10443e-05	0.0013912053241419155
1.10445e-05	0.001432821648011591
1.10448e-05	0.0014744379718812663
1.10450e-05	0.0015160542957506598
1.10453e-05	0.0015576706196203352
1.10455e-05	0.0015903440755422773
1.10458e-05	0.0016228471816559942
1.10460e-05	0.0016553502877699315
1.10463e-05	0.0016878533938838687
1.10465e-05	0.0017203564999975856
1.10468e-05	0.0017528596061115228
1.10470e-05	0.0017853627122254598
1.10472e-05	0.0018178658183391767
1.10475e-05	0.001850368924453114
1.10478e-05	0.001869464954276131
1.10480e-05	0.0018883055970254387
1.10483e-05	0.001907146239774874
1.10485e-05	0.0019259868825243095
1.10487e-05	0.001944827525273617
1.10490e-05	0.0019636681680230525
1.10493e-05	0.001982508810772488
1.10495e-05	0.002001349453521923
1.10498e-05	0.002020190096271231
1.10500e-05	0.0020298955747399382
1.10503e-05	0.002039427040409411
1.10505e-05	0.0020489585060788195
1.10508e-05	0.0020584899717482927
1.10510e-05	0.0020680214374177654
1.10513e-05	0.002077552903087174
1.10515e-05	0.002087084368756647
1.10518e-05	0.00209661583442612
1.10520e-05	0.0021061473000955283
1.10523e-05	0.0021156787657650015
1.10525e-05	0.0021252102314344742
1.10528e-05	0.0021347416971038828
1.10530e-05	0.002144273162773356
1.10533e-05	0.002151032776474422
1.10535e-05	0.0021548052365365907
1.10538e-05	0.0021585776965987857
1.10540e-05	0.0021623501566609806
1.10543e-05	0.0021661226167231495
1.10545e-05	0.0021698950767853444
1.10548e-05	0.0021736675368475393
1.10550e-05	0.002177439996909708
1.10553e-05	0.002181212456971903
1.10555e-05	0.002184984917034098
1.10557e-05	0.002188757377096267
1.10560e-05	0.002192529837158462
1.10563e-05	0.0021963022972206567
1.10565e-05	0.0022000747572828256
1.10568e-05	0.0022040878590496283
1.10570e-05	0.0022081055447226946
1.10572e-05	0.002212123230395734
1.10575e-05	0.0022161409160688004
1.10578e-05	0.002220158601741867
1.10580e-05	0.0022241762874149335
1.10583e-05	0.002228193973087973
1.10585e-05	0.0022322116587610396
1.10588e-05	0.002236229344434106
1.10590e-05	0.0022402470301071454
1.10593e-05	0.0022442647157802117
1.10595e-05	0.0022482824014532785
1.10598e-05	0.002252300087126318
1.10600e-05	0.0022563177727993843
1.10603e-05	0.002260335458472451
1.10605e-05	0.00226435314414549
1.10608e-05	0.0022683708298185568
1.10610e-05	0.002274505714220057
1.10613e-05	0.002282922249286707
1.10615e-05	0.0022913387843534134
1.10618e-05	0.0022997553194201202
1.10620e-05	0.00230817185448677
1.10623e-05	0.0023165883895534768
1.10625e-05	0.0023250049246201837
1.10628e-05	0.0023334214596868333
1.10630e-05	0.00234183799475354
1.10633e-05	0.002350254529820247
1.10635e-05	0.0023586710648868968
1.10638e-05	0.0023670875999536036
1.10640e-05	0.0023755041350203105
1.10642e-05	0.00238392067008696
1.10645e-05	0.002392337205153667
1.10648e-05	0.0024007537402203735
1.10650e-05	0.0024091702752870236
1.10653e-05	0.00241758681035373
1.10655e-05	0.002425233964973762
1.10657e-05	0.002432866463913551
1.10660e-05	0.0024404989628533918
1.10663e-05	0.0024481314617932322
1.10665e-05	0.002455763960733073
1.10668e-05	0.002463396459672862
1.10670e-05	0.0024637846310605308
1.10673e-05	0.0024640348075871377
1.10675e-05	0.0024642849841137425
1.10678e-05	0.002464535160640349
1.10680e-05	0.002464785337166956
1.10683e-05	0.0024650355136935607
1.10685e-05	0.0024536513780825113
1.10688e-05	0.0024420456242087
1.10690e-05	0.002430439870334967
1.10693e-05	0.0024104328883704255
1.10695e-05	0.002390265874119273
1.10698e-05	0.0023700988598682566
1.10700e-05	0.002340314274515859
1.10703e-05	0.00231034648715074
1.10705e-05	0.0022803786997858243
1.10708e-05	0.0022381744278014027
1.10710e-05	0.0021957370669644935
1.10713e-05	0.0021532997061278715
1.10715e-05	0.0021108623452909623
1.10718e-05	0.002068424984454053
1.10720e-05	0.002025987623617431
1.10723e-05	0.001977791891263036
1.10725e-05	0.0019233905098919233
1.10727e-05	0.0018689891285211789
1.10730e-05	0.0018145877471500659
1.10733e-05	0.0017601863657789529
1.10735e-05	0.0017057849844082087
1.10738e-05	0.0016513836030370957
1.10740e-05	0.0015941882854675147
1.10742e-05	0.001536939747107903
1.10745e-05	0.0014796912087479035
1.10748e-05	0.0014224426703879037
1.10750e-05	0.001365194132028292
1.10753e-05	0.0013133069314577221
1.10755e-05	0.001261521857283318
1.10758e-05	0.0012097367831089138
1.10760e-05	0.0011579517089348606
1.10763e-05	0.0011061666347604564
1.10765e-05	0.0010623378535865183
1.10768e-05	0.0010186606292748367
1.10770e-05	0.0009813794872972608
1.10773e-05	0.0009442201822313904
1.10775e-05	0.0009120642977799982
1.10778e-05	0.0008800037218756736
1.10780e-05	0.0008520409637620483
1.10783e-05	0.0008241562636595057
1.10785e-05	0.0008010292270579572
1.10788e-05	0.000777992817655691
1.10790e-05	0.0007602454554670623
1.10793e-05	0.0007425988426347396
1.10795e-05	0.0007291811085333955
1.10798e-05	0.0007158439289807221
1.10800e-05	0.0007059805069424218
1.10803e-05	0.0006961832553919411
1.10805e-05	0.0006900854409267718
1.10808e-05	0.0006840580958468227
1.10810e-05	0.0006818752716562526
1.10812e-05	0.0006797656805056034
1.10815e-05	0.0006812347184695247
1.10818e-05	0.000682771924586592
1.10820e-05	0.0006843091307036488
1.10823e-05	0.0006893077279400761
1.10825e-05	0.0006943722601008465
1.10827e-05	0.0006994367922615826
1.10830e-05	0.0007085316649161528
1.10833e-05	0.0007177033102284124
1.10835e-05	0.0007268749555406098
1.10838e-05	0.0007360466008528695
1.10840e-05	0.000745218246165129
1.10843e-05	0.0007543898914773886
1.10845e-05	0.000765463476933731
1.10848e-05	0.0007765732918352568
1.10850e-05	0.0007876831067367826
1.10853e-05	0.0007987929216382331
1.10855e-05	0.0008099027365397588
1.10858e-05	0.0008210125514412846
1.10860e-05	0.0008302627241337165
1.10863e-05	0.0008394774731008168
1.10865e-05	0.0008486922220679171
1.10868e-05	0.0008579069710349549
1.10870e-05	0.0008671217200020551
1.10873e-05	0.0008761576111521693
1.10875e-05	0.000885000751828727
1.10878e-05	0.0008938438925053447
1.10880e-05	0.0009026870331819623
1.10883e-05	0.0009115301738585199
1.10885e-05	0.0009203733145351376
1.10888e-05	0.0009331457130392561
1.10890e-05	0.0009459929587100241
1.10893e-05	0.0009588402043808792
1.10895e-05	0.0009716874500517342
1.10897e-05	0.0009845346957225022
1.10900e-05	0.0009973819413933572
1.10903e-05	0.0010102291870642123
1.10905e-05	0.0010230764327349804
1.10908e-05	0.0010359236784058354
1.10910e-05	0.0010487709240766905
1.10912e-05	0.001064167725562349
1.10915e-05	0.0010823121178377335
1.10918e-05	0.001100456510113118
1.10920e-05	0.0011186009023883795
1.10923e-05	0.001136745294663764
1.10925e-05	0.0011548896869391484
1.10928e-05	0.001173034079214533
1.10930e-05	0.0011911784714897945
1.10933e-05	0.001209322863765179
1.10935e-05	0.0012274672560405636
1.10938e-05	0.001245611648315825
1.10940e-05	0.0012627630284478169
1.10943e-05	0.001279895493011291
1.10945e-05	0.001297027957574649
1.10948e-05	0.001314160422138123
1.10950e-05	0.0013312928867015971
1.10953e-05	0.001348425351264955
1.10955e-05	0.001365557815828429
1.10958e-05	0.001382690280391903
1.10960e-05	0.0013998227449552611
1.10963e-05	0.0014169552095187352
1.10965e-05	0.0014340876740822092
1.10968e-05	0.0014512201386455673
1.10970e-05	0.0014621748986565343
1.10973e-05	0.00147301198156285
1.10975e-05	0.0014838490644690924
1.10978e-05	0.001494686147375408
1.10980e-05	0.0015055232302817237
1.10983e-05	0.001516360313187966
1.10985e-05	0.0015271973960942818
1.10988e-05	0.0015380344790005974
1.10990e-05	0.0015488715619068397
1.10993e-05	0.0015597086448131555
1.10995e-05	0.0015705457277194713
1.10997e-05	0.0015813828106257136
1.11000e-05	0.0015909251083758074
1.11003e-05	0.0016004427421803758
1.11005e-05	0.00160996037598488
1.11008e-05	0.0016194780097894485
1.11010e-05	0.001628995643594017
1.11013e-05	0.0016385132773985855
1.11015e-05	0.0016480309112030895
1.11018e-05	0.0016575485450076582
1.11020e-05	0.0016670661788122268
1.11023e-05	0.0016765838126167308
1.11025e-05	0.0016861014464212992
1.11028e-05	0.0016956190802258678
1.11030e-05	0.0017051367140303718
1.11033e-05	0.0017139773828899324
1.11035e-05	0.0017220885040229023
1.11038e-05	0.0017301996251558173
1.11040e-05	0.0017383107462887871
1.11043e-05	0.001746421867421757
1.11045e-05	0.0017545329885546718
1.11048e-05	0.0017626441096876416
1.11050e-05	0.0017707552308206115
1.11053e-05	0.0017788663519535265
1.11055e-05	0.0017869774730864963
1.11058e-05	0.0017950885942194662
1.11060e-05	0.001803199715352381
1.11063e-05	0.0018113108364853508
1.11065e-05	0.0018194219576183207
1.11068e-05	0.00182017768783574
1.11070e-05	0.0018207933075796048
1.11073e-05	0.0018214089273234698
1.11075e-05	0.0018220245470673305
1.11078e-05	0.0018226401668111952
1.11080e-05	0.0018232557865550602
1.11082e-05	0.0018238714062989209
1.11085e-05	0.0018154603051989482
1.11088e-05	0.0017973213389862455
1.11090e-05	0.0017791823727736655
1.11093e-05	0.0017610434065609627
1.11095e-05	0.00174290444034826
1.11098e-05	0.0017247654741355573
1.11100e-05	0.0017066265079229773
1.11103e-05	0.0016884875417102745
1.11105e-05	0.001656069153329459
1.11108e-05	0.001623378760832995
1.11110e-05	0.00159068836833631
1.11113e-05	0.001551184672850908
1.11115e-05	0.0015115511929505183
1.11118e-05	0.0014719177130498601
1.11120e-05	0.0014246415610699081
1.11123e-05	0.0013772198262901561
1.11125e-05	0.001329798091510083
1.11128e-05	0.00128237635673001
1.11130e-05	0.0012349546219502581
1.11133e-05	0.0011826514683277633
1.11135e-05	0.0011302553301290896
1.11138e-05	0.001077859191930771
1.11140e-05	0.0010254630537320972
1.11143e-05	0.0009730669155334235
1.11145e-05	0.0009210674473080707
1.11148e-05	0.0008690755351209936
1.11150e-05	0.0008170836229339165
1.11153e-05	0.0007650917107471916
1.11155e-05	0.000718095679384683
1.11158e-05	0.000671194812947911
1.11160e-05	0.0006242939465114567
1.11163e-05	0.0005773930800746847
1.11165e-05	0.000535698994334672
1.11167e-05	0.0004968593122905732
1.11170e-05	0.00046111830226059535
1.11173e-05	0.0004289829741046821
1.11175e-05	0.00039691522410636716
1.11178e-05	0.00036666537702836324
1.11180e-05	0.00033748248127132835
1.11183e-05	0.00031029525989179324
1.11185e-05	0.00028314567889083705
1.11188e-05	0.0002583995624704669
1.11190e-05	0.00023555865774877802
1.11193e-05	0.00021441061235147292
1.11195e-05	0.00019429177578013848
1.11198e-05	0.00017477316344100758
1.11200e-05	0.00015587798762182987
1.11203e-05	0.0001377444141588521
1.11205e-05	0.00012051262192361462
1.11208e-05	0.000104322710976161
1.11210e-05	8.929735839971996e-05
1.11213e-05	7.531595116954805e-05
1.11215e-05	6.196649351583361e-05
1.11218e-05	4.898400459355553e-05
1.11220e-05	3.638679392273222e-05
1.11223e-05	2.4265161661134294e-05
1.11225e-05	1.2710648101859843e-05
1.11228e-05	1.8147554924902346e-06
1.11230e-05	-8.341938093332354e-06
1.11233e-05	-1.7831260511007927e-05
1.11235e-05	-2.6907550094772053e-05
1.11238e-05	-3.573301342207368e-05
1.11240e-05	-4.4292423813260056e-05
1.11243e-05	-5.252544602815739e-05
1.11245e-05	-6.0370976064643775e-05
1.11248e-05	-6.776794970051501e-05
1.11250e-05	-7.466213996450691e-05
1.11252e-05	-8.094610039795196e-05
1.11255e-05	-8.721861614564812e-05
1.11258e-05	-9.30311619709603e-05
1.11260e-05	-9.88349459771962e-05
1.11263e-05	-0.00010412097286779037
1.11265e-05	-0.00010939713716969429
1.11268e-05	-0.00011398921205776148
1.11270e-05	-0.00011856825594668303
1.11273e-05	-0.00012220604366721362
1.11275e-05	-0.0001258259017018672
1.11278e-05	-0.00012852765128917507
1.11280e-05	-0.00013025106750017685
1.11283e-05	-0.0001319561808911089
1.11285e-05	-0.00013270601881984858
1.11288e-05	-0.0001328045034402273
1.11290e-05	-0.00013225888452364422
1.11293e-05	-0.00013104892010624216
1.11295e-05	-0.00012913575414529895
1.11298e-05	-0.00012650821522874076
1.11300e-05	-0.00012318932363553306
1.11303e-05	-0.0001192099021506228
1.11305e-05	-0.00011460089569377393
1.11308e-05	-0.00010939327747255885
1.11310e-05	-0.00010361692882597351
1.11313e-05	-9.728835143580437e-05
1.11315e-05	-9.041236859387408e-05
1.11318e-05	-8.301115740063745e-05
1.11320e-05	-7.512832822415713e-05
1.11323e-05	-6.68123343816105e-05
1.11325e-05	-5.811174948588655e-05
1.11328e-05	-4.907511213031607e-05
1.11330e-05	-3.975032120259335e-05
1.11333e-05	-3.0176859695321794e-05
1.11335e-05	-2.038691057050339e-05
1.11337e-05	-1.0423515415540592e-05
1.11340e-05	-3.4314040762155265e-07
1.11343e-05	9.772094427540733e-06
1.11345e-05	1.9887951673260783e-05
1.11348e-05	3.0003808919049383e-05
1.11350e-05	3.9871800062348794e-05
1.11353e-05	4.973506910474711e-05
1.11355e-05	5.92915282057962e-05
1.11358e-05	6.856634452637722e-05
1.11360e-05	7.749667389969017e-05
1.11363e-05	8.601611308233635e-05
1.11365e-05	9.405826814516518e-05
1.11368e-05	0.00010155671027513183
1.11370e-05	0.00010845117889682316
1.11373e-05	0.00011455219787255769
1.11375e-05	0.0001206383181380937
1.11378e-05	0.00012598453956293065
1.11380e-05	0.00013131666689282406
1.11383e-05	0.00013587232455311525
1.11385e-05	0.00014041319149243545
1.11388e-05	0.0001440486269675021
1.11390e-05	0.00014766681516988325
1.11393e-05	0.00015040409049964346
1.11395e-05	0.00015312458560350187
1.11398e-05	0.00015520900389398194
1.11400e-05	0.00015728130576185155
1.11403e-05	0.00015856000445777223
1.11405e-05	0.00015982358606216147
1.11408e-05	0.00016108716766654213
1.11410e-05	0.00016136653082752484
1.11413e-05	0.00016162714592798865
1.11415e-05	0.00016188776102845072
1.11418e-05	0.00016145489172963735
1.11420e-05	0.00016100881246958656
1.11422e-05	0.00016056273320953882
1.11425e-05	0.0001592430143069634
1.11428e-05	0.00015790665372388156
1.11430e-05	0.00015657029314080877
1.11433e-05	0.00015523393255772693
1.11435e-05	0.0001538975719746451
1.11438e-05	0.00015256121139156325
1.11440e-05	0.0001509482144020015
1.11443e-05	0.00014903709346501058
1.11445e-05	0.00014712597252801966
1.11448e-05	0.00014521485159104167
1.11450e-05	0.00014330373065405075
1.11453e-05	0.0001413926097170598
1.11455e-05	0.00013948148878008184
1.11458e-05	0.00013764643065630766
1.11460e-05	0.0001358128214285957
1.11463e-05	0.00013397921220089618
1.11465e-05	0.00013231821366821824
1.11468e-05	0.00013076890187698482
