Time(s)	Current(A)
1.13000e-05	0.000850948932998329
1.13003e-05	0.000853491583906531
1.13005e-05	0.0008532331729361605
1.13008e-05	0.0008529747619657918
1.13010e-05	0.0008527163509954214
1.13013e-05	0.000852457940025051
1.13015e-05	0.0008521995290546823
1.13018e-05	0.0008519411180843119
1.13020e-05	0.0008516827071139414
1.13023e-05	0.0008476791166171639
1.13025e-05	0.0008433445318073164
1.13028e-05	0.0008390099469974689
1.13030e-05	0.0008346753621876506
1.13033e-05	0.0008303407773778031
1.13035e-05	0.0008260061925679555
1.13037e-05	0.0008216716077581374
1.13040e-05	0.0008169266733341166
1.13043e-05	0.0008116122609766616
1.13045e-05	0.0008062978486192427
1.13048e-05	0.0008009834362617877
1.13050e-05	0.0007956690239043328
1.13052e-05	0.0007903546115469139
1.13055e-05	0.0007857345001687715
1.13058e-05	0.0007811757502485063
1.13060e-05	0.000776617000328241
1.13063e-05	0.0007720582504080067
1.13065e-05	0.0007674995004877414
1.13068e-05	0.0007614116327914215
1.13070e-05	0.0007532016750502762
1.13073e-05	0.0007449917173090753
1.13075e-05	0.0007352904331620396
1.13078e-05	0.0007235195053492153
1.13080e-05	0.0007104019706780837
1.13083e-05	0.000695415632273766
1.13085e-05	0.0006804292938695499
1.13088e-05	0.0006635083127002449
1.13090e-05	0.0006439024591054053
1.13093e-05	0.0006227855335406119
1.13095e-05	0.0005995715616687292
1.13098e-05	0.0005751377039574434
1.13100e-05	0.0005490109043183061
1.13103e-05	0.0005217766771416054
1.13105e-05	0.0004930055762265683
1.13108e-05	0.00046298361209475236
1.13110e-05	0.00043122571602717774
1.13113e-05	0.0003984586692649148
1.13115e-05	0.00036429113610682165
1.13118e-05	0.0003294614744524977
1.13120e-05	0.0002937129193603567
1.13122e-05	0.0002574387422216271
1.13125e-05	0.00022043511354486988
1.13128e-05	0.0001834314848681127
1.13130e-05	0.00014613069154285956
1.13133e-05	0.00010841749692765193
1.13135e-05	7.070430231244432e-05
1.13137e-05	3.3209536317674794e-05
1.13140e-05	-3.7144752122496833e-06
1.13143e-05	-3.993013465928314e-05
1.13145e-05	-7.530555431357246e-05
1.13148e-05	-0.00010973904590939597
1.13150e-05	-0.00014306864005764975
1.13153e-05	-0.00017506915902132665
1.13155e-05	-0.00020549952072285098
1.13158e-05	-0.00023411867878118695
1.13160e-05	-0.00026068781969542206
1.13163e-05	-0.0002850396804688844
1.13165e-05	-0.0003072092280381967
1.13168e-05	-0.0003273711190895874
1.13170e-05	-0.0003456105619641589
1.13173e-05	-0.00036187932600563797
1.13175e-05	-0.0003760919698297039
1.13178e-05	-0.0003881631027977236
1.13180e-05	-0.00039800873596259294
1.13183e-05	-0.00040558970519115453
1.13185e-05	-0.0004109935011681916
1.13188e-05	-0.0004143951449535719
1.13190e-05	-0.0004155281622287683
1.13193e-05	-0.00041504934601009575
1.13195e-05	-0.00041303881639370986
1.13198e-05	-0.00040890259456110006
1.13200e-05	-0.00040327011602624607
1.13203e-05	-0.0003955611516225013
1.13205e-05	-0.00038655606156176635
1.13207e-05	-0.0003757522249311822
1.13210e-05	-0.0003638736811135766
1.13213e-05	-0.0003505036724400577
1.13215e-05	-0.0003361867055054038
1.13218e-05	-0.00032055556203604036
1.13220e-05	-0.0003041094630595196
1.13222e-05	-0.0002865323792782771
1.13225e-05	-0.000268284610589818
1.13228e-05	-0.0002491060739856594
1.13230e-05	-0.00022992753738150084
1.13233e-05	-0.000210393011817451
1.13235e-05	-0.00019036444933841944
1.13238e-05	-0.00017033588685938785
1.13240e-05	-0.00015039823929670137
1.13243e-05	-0.00013058676228904656
1.13245e-05	-0.00011077528528139175
1.13248e-05	-9.131861798490069e-05
1.13250e-05	-7.264185927106047e-05
1.13253e-05	-5.470820379557468e-05
1.13255e-05	-3.765278334859086e-05
1.13258e-05	-2.1610721091343562e-05
1.13260e-05	-6.713723819334328e-06
1.13263e-05	7.0126896360376945e-06
1.13265e-05	1.982679727897158e-05
1.13268e-05	3.2136737450198474e-05
1.13270e-05	4.4145735782181776e-05
1.13273e-05	5.582236699318146e-05
1.13275e-05	6.707429566745948e-05
1.13278e-05	7.780920184254736e-05
1.13280e-05	8.793691809208344e-05
1.13283e-05	9.736784345522444e-05
1.13285e-05	0.0001063624113616475
1.13288e-05	0.00011522245194617549
1.13290e-05	0.00012389579723792973
1.13292e-05	0.00013236339811702807
1.13295e-05	0.00014054546953801302
1.13298e-05	0.00014872754095899798
1.13300e-05	0.00015629285085097194
1.13303e-05	0.00016300222699993614
1.13305e-05	0.00016971160314890033
1.13307e-05	0.00017642097929781907
1.13310e-05	0.00018313035544678327
1.13313e-05	0.00018983973159574744
1.13315e-05	0.00019654910774471166
1.13318e-05	0.00020325848389363038
1.13320e-05	0.00020996786004259457
1.13323e-05	0.00021667723619155877
1.13325e-05	0.00022338661234047748
1.13328e-05	0.00022936090833315827
1.13330e-05	0.0002343150695085156
1.13333e-05	0.0002392692306838394
1.13335e-05	0.00024422339185919674
1.13338e-05	0.0002491775530345541
1.13340e-05	0.00025413171420987787
1.13343e-05	0.0002590858753852352
1.13345e-05	0.00026404003656059255
1.13348e-05	0.00026899419773591634
1.13350e-05	0.0002739483589112737
1.13353e-05	0.000278902520086631
1.13355e-05	0.0002833865578801627
1.13358e-05	0.0002871104048823285
1.13360e-05	0.0002905771886918253
1.13363e-05	0.0002941781488431677
1.13365e-05	0.0002993625576222403
1.13368e-05	0.0003080311183582065
1.13370e-05	0.0003211360846026378
1.13373e-05	0.0003386447027615036
1.13375e-05	0.00036027696015531304
1.13377e-05	0.0003857528535576453
1.13380e-05	0.00041480084138029985
1.13383e-05	0.00044740584629309946
1.13385e-05	0.0004842154915935663
1.13388e-05	0.0005261601401642346
1.13390e-05	0.0005735759431549469
1.13392e-05	0.0006261819998527391
1.13395e-05	0.0006835426164632141
1.13398e-05	0.0007452220937200333
1.13400e-05	0.0008115408372246502
1.13403e-05	0.0008810186654437124
1.13405e-05	0.0009538049970386737
1.13408e-05	0.0010311828272050432
1.13410e-05	0.0011117286259582863
1.13413e-05	0.0011966708909063265
1.13415e-05	0.0012843153647706424
1.13418e-05	0.0013757099295277674
1.13420e-05	0.001467104494285512
1.13423e-05	0.0015607479406807183
1.13425e-05	0.0016575123561826108
1.13428e-05	0.001754276771685159
1.13430e-05	0.0018510411871877073
1.13433e-05	0.0019478056026895998
1.13435e-05	0.0020439319533688553
1.13438e-05	0.0021400019126715988
1.13440e-05	0.0022360718719736912
1.13443e-05	0.0023321418312764342
1.13445e-05	0.002424867590799071
1.13448e-05	0.00251295231273625
1.13450e-05	0.0026010370346740254
1.13453e-05	0.0026842740336813077
1.13455e-05	0.0027607834249488835
1.13458e-05	0.002837292816216978
1.13460e-05	0.0029072039062037073
1.13462e-05	0.0029679579582561908
1.13465e-05	0.003028712010309086
1.13468e-05	0.003084700506981565
1.13470e-05	0.00313407542698683
1.13473e-05	0.0031834503469924296
1.13475e-05	0.0032278853981009916
1.13477e-05	0.0032654649624784026
1.13480e-05	0.003303044526856068
1.13483e-05	0.0033317779700797545
1.13485e-05	0.003348234879764451
1.13488e-05	0.003364691789449035
1.13490e-05	0.0033811486991337314
1.13493e-05	0.0033976056088184273
1.13495e-05	0.003414062518503012
1.13498e-05	0.003430519428187708
1.13500e-05	0.003446976337872404
1.13503e-05	0.003463433247556989
1.13505e-05	0.0034706132523388525
1.13508e-05	0.00346491888741693
1.13510e-05	0.003459224522495046
1.13513e-05	0.0034535301575731227
1.13515e-05	0.0034478357926512
1.13518e-05	0.003442141427729316
1.13520e-05	0.003436447062807393
1.13523e-05	0.0034307526978854704
1.13525e-05	0.0034250583329635863
1.13528e-05	0.0034153360386241388
1.13530e-05	0.0034000238354728006
1.13533e-05	0.003384711632321566
1.13535e-05	0.003369399429170228
1.13538e-05	0.0033540872260188893
1.13540e-05	0.003338775022867655
1.13543e-05	0.0033234628197163166
1.13545e-05	0.0033081506165649785
1.13548e-05	0.003292838413413744
1.13550e-05	0.003278951222819535
1.13553e-05	0.0032651899730651766
1.13555e-05	0.003251428723310911
1.13558e-05	0.003237667473556552
1.13560e-05	0.0032239062238021933
1.13562e-05	0.003210144974047928
1.13565e-05	0.0031963837242935693
1.13568e-05	0.0031826224745392104
1.13570e-05	0.003165569268776365
1.13573e-05	0.0031439475286638096
1.13575e-05	0.0031223257885511072
1.13578e-05	0.0031007040484384053
1.13580e-05	0.0030790823083258496
1.13583e-05	0.0030574605682131477
1.13585e-05	0.0030358388281004458
1.13588e-05	0.00301421708798789
1.13590e-05	0.002992595347875188
1.13593e-05	0.002970973607762486
1.13595e-05	0.0029493518676499304
1.13598e-05	0.0029277301275372285
1.13600e-05	0.0029001643631373975
1.13603e-05	0.0028643495580261027
1.13605e-05	0.0028285347529145655
1.13608e-05	0.002792719947803028
1.13610e-05	0.002756905142691733
1.13613e-05	0.002721090337580196
1.13615e-05	0.0026852755324686586
1.13618e-05	0.0026494607273573638
1.13620e-05	0.0026136459222458265
1.13623e-05	0.002577831117134289
1.13625e-05	0.0025420163120229945
1.13628e-05	0.002506201506911457
1.13630e-05	0.002469471291750726
1.13633e-05	0.0024314706822581005
1.13635e-05	0.0023934700727652174
1.13638e-05	0.0023554694632723343
1.13640e-05	0.002317468853779709
1.13643e-05	0.0022794682442868258
1.13645e-05	0.0022414676347939427
1.13647e-05	0.002203467025301317
1.13650e-05	0.00216941623560916
1.13653e-05	0.0021408469552064253
1.13655e-05	0.0021122776748036904
1.13658e-05	0.0020837083944011494
1.13660e-05	0.0020551391139984145
1.13663e-05	0.0020265698335956797
1.13665e-05	0.001998000553193138
1.13668e-05	0.0019694312727904033
1.13670e-05	0.0019400793311837832
1.13673e-05	0.001909641222390953
1.13675e-05	0.0018792031135979165
1.13678e-05	0.0018487650048048798
1.13680e-05	0.0018183268960120496
1.13683e-05	0.0017878887872190131
1.13685e-05	0.0017574506784259767
1.13688e-05	0.0017270125696331464
1.13690e-05	0.00169657446084011
1.13693e-05	0.0016661363520470735
1.13695e-05	0.0016356982432542432
1.13698e-05	0.0016007909841585957
1.13700e-05	0.001559681495558916
1.13703e-05	0.0015185720069595147
1.13705e-05	0.0014774625183598352
1.13708e-05	0.0014363530297601555
1.13710e-05	0.0013952435411607542
1.13713e-05	0.0013541340525610747
1.13715e-05	0.001313024563961395
1.13718e-05	0.0012719150753619938
1.13720e-05	0.0012308055867623143
1.13723e-05	0.0011896960981626343
1.13725e-05	0.0011470925342930436
1.13728e-05	0.0011024155119141517
1.13730e-05	0.0010577384895352601
1.13732e-05	0.0010130614671566712
1.13735e-05	0.0009683844447777795
1.13738e-05	0.0009250107174007734
1.13740e-05	0.0008834456861218949
1.13743e-05	0.0008418806548432982
1.13745e-05	0.0008003156235644197
1.13748e-05	0.0007587505922855412
1.13750e-05	0.0007191013877906044
1.13753e-05	0.0006821109431490441
1.13755e-05	0.0006467747380054806
1.13758e-05	0.0006137342652337321
1.13760e-05	0.0005822287541250175
1.13763e-05	0.0005541219371919592
1.13765e-05	0.000529342123368788
1.13768e-05	0.0005084980184158055
1.13770e-05	0.0004918973949732638
1.13773e-05	0.00047958451434611157
1.13775e-05	0.0004715418898587188
1.13778e-05	0.0004677520010052629
1.13780e-05	0.00046819932621345125
1.13783e-05	0.00047292471136741907
1.13785e-05	0.0004821016157580293
1.13788e-05	0.0004959196467344607
1.13790e-05	0.0005143797976429183
1.13793e-05	0.0005373179993714911
1.13795e-05	0.0005645314902598419
1.13798e-05	0.0005958175723266825
1.13800e-05	0.0006309748286421355
1.13803e-05	0.0006698370728970354
1.13805e-05	0.0007130486168210612
1.13808e-05	0.0007593636959103154
1.13810e-05	0.0008083476805410654
1.13813e-05	0.0008610355380739391
1.13815e-05	0.000916292135069978
1.13817e-05	0.0009751135957673793
1.13820e-05	0.0010339350564651793
1.13823e-05	0.001095175527555922
1.13825e-05	0.001159773070263603
1.13828e-05	0.0012243706129717218
1.13830e-05	0.0012889681556798405
1.13833e-05	0.0013535656983879592
1.13835e-05	0.0014190378110964079
1.13838e-05	0.0014845872172159268
1.13840e-05	0.0015501366233354457
1.13843e-05	0.0016156860294545203
1.13845e-05	0.0016792310684885425
1.13848e-05	0.0017399944725722911
1.13850e-05	0.0018007578766556281
1.13853e-05	0.0018581811113320306
1.13855e-05	0.0019109689017174159
1.13858e-05	0.0019637566921024436
1.13860e-05	0.0020114882366509984
1.13863e-05	0.002052202788035249
1.13865e-05	0.0020929173394192233
1.13868e-05	0.0021280945357606143
1.13870e-05	0.0021555870617479414
1.13873e-05	0.0021783566925279337
1.13875e-05	0.002194571949874619
1.13878e-05	0.002206002832615083
1.13880e-05	0.002210794021600176
1.13883e-05	0.002210672514188395
1.13885e-05	0.0022037332296849115
1.13888e-05	0.0021918066056760806
1.13890e-05	0.00217295861582627
1.13893e-05	0.0021494115717097576
1.13895e-05	0.0021193432403118916
1.13898e-05	0.0020839179454460142
1.13900e-05	0.0020410583253417805
1.13902e-05	0.001998198705237838
1.13905e-05	0.0019495584127339313
1.13908e-05	0.0018928957771666439
1.13910e-05	0.0018362331415997402
1.13913e-05	0.0017749306072013717
1.13915e-05	0.0017071888806762438
1.13918e-05	0.001639447154151116
1.13920e-05	0.001568442859099626
1.13923e-05	0.001492910813263376
1.13925e-05	0.0014173787674271261
1.13928e-05	0.0013398869905866119
1.13930e-05	0.0012596755241754832
1.13933e-05	0.0011794640577643546
1.13935e-05	0.0010992525913537696
1.13938e-05	0.0010195953049252223
1.13940e-05	0.00094070710237347
1.13943e-05	0.0008618188998222522
1.13945e-05	0.0007829306972704998
1.13948e-05	0.0007064028331577282
1.13950e-05	0.0006331506164782492
1.13953e-05	0.0005618163157108326
1.13955e-05	0.0004947184925147372
1.13958e-05	0.0004316031504163112
1.13960e-05	0.00037300642791411414
1.13963e-05	0.0003196263295583242
1.13965e-05	0.0002725391035846433
1.13968e-05	0.0002328592814952033
1.13970e-05	0.00020115057500962443
1.13973e-05	0.00017749805682338175
1.13975e-05	0.00016187524344611122
1.13978e-05	0.00015425556780741226
1.13980e-05	0.00015461599417752878
1.13983e-05	0.00016303486479245284
1.13985e-05	0.00017982744401797112
1.13987e-05	0.00020533291757931095
1.13990e-05	0.00023954539299766707
1.13993e-05	0.0002821591837171026
1.13995e-05	0.00033279871226734947
1.13998e-05	0.00039108840317024214
1.14000e-05	0.0004566548681804424
1.14003e-05	0.0005291882551672733
1.14005e-05	0.0006085270947140146
1.14008e-05	0.0006945249547610056
1.14010e-05	0.000786819253839517
1.14013e-05	0.000884859590181969
1.14015e-05	0.0009889339840915838
1.14018e-05	0.0010970261633806715
1.14020e-05	0.001208768228971001
1.14023e-05	0.0013255755599916345
1.14025e-05	0.0014423828910122677
1.14028e-05	0.0015619689131813777
1.14030e-05	0.0016854111673140723
1.14033e-05	0.001808853421446767
1.14035e-05	0.0019322956755786253
1.14038e-05	0.00205573792971132
1.14040e-05	0.0021750697476258084
1.14043e-05	0.0022940382902902454
1.14045e-05	0.0024130068329554885
1.14048e-05	0.0025319753756207317
1.14050e-05	0.002644941721782494
1.14053e-05	0.002749578296567409
1.14055e-05	0.0028542148713523235
1.14058e-05	0.002950698657030064
1.14060e-05	0.0030358681064786494
1.14063e-05	0.003121037555927235
1.14065e-05	0.003198643885449745
1.14068e-05	0.0032657542140743906
1.14070e-05	0.0033328645426990364
1.14072e-05	0.003393359896016628
1.14075e-05	0.00344467507138601
1.14078e-05	0.0034959902467553918
1.14080e-05	0.003539736191637713
1.14083e-05	0.0035729776554628196
1.14085e-05	0.0036062191192879262
1.14088e-05	0.0036335173145252446
1.14090e-05	0.003652567517788875
1.14093e-05	0.0036716177210526346
1.14095e-05	0.0036850247232999398
1.14098e-05	0.0036906001635030774
1.14100e-05	0.003696175603706253
1.14103e-05	0.0036933271392673227
1.14105e-05	0.003678788087932104
1.14108e-05	0.003664249036596787
1.14110e-05	0.0036497099852614693
1.14113e-05	0.0036351709339262506
1.14115e-05	0.0036206318825909335
1.14118e-05	0.003606092831255616
1.14120e-05	0.0035915537799203973
1.14123e-05	0.0035702562729078347
1.14125e-05	0.00353957946772638
1.14128e-05	0.003508902662545133
1.14130e-05	0.003478225857363678
1.14133e-05	0.0034475490521822232
1.14135e-05	0.0034168722470009766
1.14138e-05	0.0033861954418195218
1.14140e-05	0.003355518636638067
1.14143e-05	0.0033259923599837414
1.14145e-05	0.003298062772073169
1.14148e-05	0.0032701331841625964
1.14150e-05	0.003242203596252213
1.14153e-05	0.00321427400834164
1.14155e-05	0.0031863444204310674
1.14157e-05	0.003158414832520684
1.14160e-05	0.0031304852446101114
1.14163e-05	0.0031025556566995384
1.14165e-05	0.003074626068789155
1.14168e-05	0.0030466964808785824
1.14170e-05	0.003027945793038885
1.14173e-05	0.003010006324991437
1.14175e-05	0.0029920668569441097
1.14178e-05	0.002974127388896661
1.14180e-05	0.0029561879208492127
1.14183e-05	0.0029382484528018855
1.14185e-05	0.002920308984754437
1.14188e-05	0.0029023695167069885
1.14190e-05	0.0028844300486596613
1.14193e-05	0.002866490580612213
1.14195e-05	0.0028500751420556733
1.14198e-05	0.002835774732094407
1.14200e-05	0.0028214743221330434
1.14203e-05	0.0028071739121716803
1.14205e-05	0.002792873502210414
1.14208e-05	0.0027785730922490503
1.14210e-05	0.002764272682287687
1.14213e-05	0.0027499722723264204
1.14215e-05	0.0027356718623650573
1.14218e-05	0.0027213714524036937
1.14220e-05	0.0027070710424424273
1.14223e-05	0.0026927706324810638
1.14225e-05	0.0026784702225197007
1.14228e-05	0.0026641698125584343
1.14230e-05	0.0026498694025970707
1.14233e-05	0.002639239903795315
1.14235e-05	0.00262893483556455
1.14238e-05	0.002618629767333716
1.14240e-05	0.0026083246991028815
1.14242e-05	0.0025980196308721167
1.14245e-05	0.002587714562641282
1.14248e-05	0.0025774094944104476
1.14250e-05	0.002567104426179683
1.14253e-05	0.0025567993579488483
1.14255e-05	0.002546494289718014
1.14258e-05	0.0025361892214871796
1.14260e-05	0.002525884153256415
1.14263e-05	0.0025155790850255803
1.14265e-05	0.0025052740167947458
1.14268e-05	0.0024915170992384885
1.14270e-05	0.0024729697494265926
1.14273e-05	0.0024544223996146963
1.14275e-05	0.002435875049802926
1.14278e-05	0.00241732769999103
1.14280e-05	0.002398780350179134
1.14283e-05	0.0023802330003673635
1.14285e-05	0.0023616856505554677
1.14288e-05	0.0023431383007435714
1.14290e-05	0.0023245909509318013
1.14293e-05	0.0023060436011199054
1.14295e-05	0.002287496251308009
1.14298e-05	0.0022527603582330946
1.14300e-05	0.0022165937418010496
1.14303e-05	0.0021804271253690046
1.14305e-05	0.002144260508937205
1.14308e-05	0.00210809389250516
1.14310e-05	0.0020719272760731156
1.14313e-05	0.0020357606596413157
1.14315e-05	0.0019995940432092707
1.14318e-05	0.001963427426777226
1.14320e-05	0.0019272608103454263
1.14323e-05	0.0018910941939133815
1.14325e-05	0.001852265243374466
1.14327e-05	0.0018097415396816524
1.14330e-05	0.0017672178359885505
1.14333e-05	0.0017246941322954488
1.14335e-05	0.0016821704286026351
1.14338e-05	0.0016396467249095333
1.14340e-05	0.001598730635178731
1.14343e-05	0.0015600455715024434
1.14345e-05	0.0015213605078264177
1.14348e-05	0.00148267544415013
1.14350e-05	0.0014439903804738423
1.14353e-05	0.0014053053167978166
1.14355e-05	0.0013697998333956143
1.14358e-05	0.0013387069307501456
1.14360e-05	0.0013076140281048875
1.14363e-05	0.001279324434910601
1.14365e-05	0.0012549252386471984
1.14368e-05	0.0012332458354113686
1.14370e-05	0.0012153409260837423
1.14373e-05	0.0012002582673226012
1.14375e-05	0.0011890922917296085
1.14378e-05	0.0011807993932481402
1.14380e-05	0.0011764937143626953
1.14383e-05	0.0011751345124580712
1.14385e-05	0.001177864393547261
1.14388e-05	0.001183554378494367
1.14390e-05	0.001193352357640576
1.14393e-05	0.0012059412138456954
1.14395e-05	0.0012224032134669376
1.14398e-05	0.001242062182459811
1.14400e-05	0.0012661578645766572
1.14403e-05	0.0012902535466935035
1.14405e-05	0.0013177878335090226
1.14408e-05	0.0013500941718590008
1.14410e-05	0.0013824005102089788
1.14412e-05	0.0014184461302595766
1.14415e-05	0.001459681077534947
1.14418e-05	0.0015009160248103174
1.14420e-05	0.0015421509720854084
1.14423e-05	0.0015833859193607788
1.14425e-05	0.0016246208666361491
1.14428e-05	0.0016679937059720885
1.14430e-05	0.0017143334845118095
1.14433e-05	0.0017606732630518446
1.14435e-05	0.0018070130415918798
1.14438e-05	0.0018533528201316008
1.14440e-05	0.0018996925986716358
1.14443e-05	0.0019432573250446191
1.14445e-05	0.001982970869582595
1.14448e-05	0.0020226844141208395
1.14450e-05	0.002062397958659084
1.14453e-05	0.0021021115031970594
1.14455e-05	0.002141825047735304
1.14458e-05	0.0021815385922735486
1.14460e-05	0.002221252136811524
1.14463e-05	0.0022526501782359973
1.14465e-05	0.002272508071002592
1.14468e-05	0.0022923659637690526
