Time(s)	Current(A)
5.00000e-06	0.011323064820533664
5.00025e-06	0.011342290366438518
5.00050e-06	0.011361515912343436
5.00075e-06	0.01138074145824829
5.00100e-06	0.011399967004153142
5.00125e-06	0.01141919255005806
5.00150e-06	0.011438418095962914
5.00175e-06	0.011457643641867767
5.00200e-06	0.011476869187772685
5.00225e-06	0.011496094733677537
5.00250e-06	0.011515320279582391
5.00275e-06	0.01152740362689327
5.00300e-06	0.011534764123197521
5.00325e-06	0.011542124619501774
5.00350e-06	0.01154948511580605
5.00375e-06	0.011556845612110303
5.00400e-06	0.01156420610841458
5.00425e-06	0.01157156660471883
5.00450e-06	0.011578927101023083
5.00475e-06	0.01158628759732736
5.00500e-06	0.011593648093631613
5.00525e-06	0.011601008589935864
5.00550e-06	0.011598394642379134
5.00575e-06	0.011589184993007885
5.00600e-06	0.011579975343636636
5.00625e-06	0.011570765694265355
5.00650e-06	0.011561556044894105
5.00675e-06	0.011552346395522856
5.00700e-06	0.011543136746151575
5.00725e-06	0.011533927096780326
5.00750e-06	0.011524717447409077
5.00775e-06	0.011515507798037797
5.00800e-06	0.011506298148666548
5.00825e-06	0.011497088499295266
5.00850e-06	0.011487878849924017
5.00875e-06	0.011478669200552767
5.00900e-06	0.011466100603533497
5.00925e-06	0.011451310868433397
5.00950e-06	0.011436521133333299
5.00975e-06	0.011421731398233149
5.01000e-06	0.01140694166313305
5.01025e-06	0.011392151928032952
5.01050e-06	0.011377362192932802
5.01075e-06	0.011362572457832704
5.01100e-06	0.011347782722732604
5.01125e-06	0.011332992987632455
5.01150e-06	0.011318203252532357
5.01175e-06	0.011303413517432257
5.01200e-06	0.011288623782332108
5.01225e-06	0.01127383404723201
5.01250e-06	0.011266376820748943
5.01275e-06	0.011263768289697731
5.01300e-06	0.011261159758646519
5.01325e-06	0.011258551227595299
5.01350e-06	0.011255942696544086
5.01375e-06	0.011253334165492875
5.01400e-06	0.011250725634441653
5.01425e-06	0.011248117103390442
5.01450e-06	0.01124550857233923
5.01475e-06	0.011253761278493389
5.01500e-06	0.011269196087522491
5.01525e-06	0.011284630896551594
5.01550e-06	0.011300065705580748
5.01575e-06	0.01131550051460985
5.01600e-06	0.011330935323638953
5.01625e-06	0.011346370132668107
5.01650e-06	0.01136180494169721
5.01675e-06	0.011377239750726366
5.01700e-06	0.011402325938133622
5.01725e-06	0.011433794197038182
5.01750e-06	0.011465262455942848
5.01775e-06	0.011496730714847407
5.01800e-06	0.011528198973751966
5.01825e-06	0.011559667232656633
5.01850e-06	0.011591135491561192
5.01875e-06	0.01162260375046575
5.01900e-06	0.011654072009370417
5.01925e-06	0.011685540268274976
5.01950e-06	0.011717008527179535
5.01975e-06	0.0117484767860842
5.02000e-06	0.011779945044988761
5.02025e-06	0.01181141330389332
5.02050e-06	0.011839607587931811
5.02075e-06	0.011865636923000616
5.02100e-06	0.011891666258069509
5.02125e-06	0.011917695593138313
5.02150e-06	0.011943724928207118
5.02175e-06	0.011969754263276011
5.02200e-06	0.011995783598344818
5.02225e-06	0.012021812933413622
5.02250e-06	0.012047842268482515
5.02275e-06	0.01207387160355132
5.02300e-06	0.012099900938620125
5.02325e-06	0.012125930273689018
5.02350e-06	0.012151959608757822
5.02375e-06	0.012177988943826627
5.02400e-06	0.012189220481120876
5.02425e-06	0.012190666825079254
5.02450e-06	0.012192113169037632
5.02475e-06	0.012193559512996013
5.02500e-06	0.012195005856954391
5.02525e-06	0.012196452200912774
5.02550e-06	0.012197898544871152
5.02575e-06	0.01219934488882953
5.02600e-06	0.012200791232787913
5.02625e-06	0.01220223757674629
5.02650e-06	0.012203683920704669
5.02675e-06	0.012205130264663052
5.02700e-06	0.01219601500302842
5.02725e-06	0.012179915772952543
5.02750e-06	0.012163816542876614
5.02775e-06	0.012147717312800737
5.02800e-06	0.012131618082724862
5.02825e-06	0.012115518852648931
5.02850e-06	0.012099419622573056
5.02875e-06	0.012083320392497179
5.02900e-06	0.01206722116242125
5.02925e-06	0.012051121932345372
5.02950e-06	0.012035022702269443
5.02975e-06	0.012018923472193566
5.03000e-06	0.012001474147944396
5.03025e-06	0.01198313206027814
5.03050e-06	0.011964789972611946
5.03075e-06	0.011946447884945753
5.03100e-06	0.011928105797279497
5.03125e-06	0.011909763709613304
5.03150e-06	0.01189142162194711
5.03175e-06	0.011873079534280854
5.03200e-06	0.01185473744661466
5.03225e-06	0.011841977311683132
5.03250e-06	0.011832908299412068
5.03275e-06	0.011823839287141034
5.03300e-06	0.011814770274870002
5.03325e-06	0.011805701262598937
5.03350e-06	0.011796632250327904
5.03375e-06	0.01178756323805684
5.03400e-06	0.011778494225785807
5.03425e-06	0.011769425213514774
5.03450e-06	0.011769656500068872
5.03475e-06	0.011776037703215413
5.03500e-06	0.011782418906361955
5.03525e-06	0.011788800109508519
5.03550e-06	0.01179518131265506
5.03575e-06	0.011801562515801603
5.03600e-06	0.011807943718948166
5.03625e-06	0.011814324922094707
5.03650e-06	0.011820706125241248
5.03675e-06	0.011827087328387812
5.03700e-06	0.011833468531534354
5.03725e-06	0.011839849734680895
5.03750e-06	0.011846230937827459
5.03775e-06	0.011852612140974002
5.03800e-06	0.011858993344120565
5.03825e-06	0.011865374547267106
5.03850e-06	0.011871755750413649
5.03875e-06	0.011882529613453069
5.03900e-06	0.011896208167241169
5.03925e-06	0.01190988672102927
5.03950e-06	0.011923565274817418
5.03975e-06	0.01193724382860552
5.04000e-06	0.01195092238239362
5.04025e-06	0.011964600936181768
5.04050e-06	0.011978279489969868
5.04075e-06	0.01199195804375797
5.04100e-06	0.012005636597546117
5.04125e-06	0.012019315151334217
5.04150e-06	0.012032993705122319
5.04175e-06	0.012046672258910466
5.04200e-06	0.012060350812698567
5.04225e-06	0.012074029366486714
5.04250e-06	0.012087707920274814
5.04275e-06	0.012101386474062916
5.04300e-06	0.012114379973257585
5.04325e-06	0.012126920473178785
5.04350e-06	0.012139460973099985
5.04375e-06	0.012152001473021227
5.04400e-06	0.012164541972942427
5.04425e-06	0.012177082472863627
5.04450e-06	0.012189622972784869
5.04475e-06	0.012202163472706069
5.04500e-06	0.012214703972627269
5.04525e-06	0.012227244472548512
5.04550e-06	0.01223978497246971
5.04575e-06	0.01225232547239091
5.04600e-06	0.012264865972312154
5.04625e-06	0.012277782737824818
5.04650e-06	0.012294013827655268
5.04675e-06	0.012310244917485665
5.04700e-06	0.012326476007316062
5.04725e-06	0.012342707097146513
5.04750e-06	0.01235893818697691
5.04775e-06	0.012375169276807306
5.04800e-06	0.012391400366637757
5.04825e-06	0.012407631456468154
5.04850e-06	0.01242386254629855
5.04875e-06	0.012440093636129003
5.04900e-06	0.012456324725959398
5.04925e-06	0.012472555815789795
5.04950e-06	0.012488786905620247
5.04975e-06	0.012504331899633068
5.05000e-06	0.012519423205852568
5.05025e-06	0.012534514512072116
5.05050e-06	0.012549605818291615
5.05075e-06	0.012564697124511165
5.05100e-06	0.012579788430730663
5.05125e-06	0.01259487973695016
5.05150e-06	0.01260997104316971
5.05175e-06	0.012625062349389208
5.05200e-06	0.012640153655608707
5.05225e-06	0.012655244961828255
5.05250e-06	0.012670336268047755
5.05275e-06	0.012677894348706404
5.05300e-06	0.012680471007829515
5.05325e-06	0.012683047666952618
5.05350e-06	0.012685624326075721
5.05375e-06	0.012688200985198832
5.05400e-06	0.012690777644321935
5.05425e-06	0.012693354303445039
5.05450e-06	0.01269593096256815
5.05475e-06	0.012698507621691252
5.05500e-06	0.012701084280814364
5.05525e-06	0.012703660939937467
5.05550e-06	0.012706237599060569
5.05575e-06	0.012697428292465908
5.05600e-06	0.012681089900970305
5.05625e-06	0.012664751509474702
5.05650e-06	0.012648413117979044
5.05675e-06	0.012632074726483443
5.05700e-06	0.01261573633498784
5.05725e-06	0.012599397943492182
5.05750e-06	0.01258305955199658
5.05775e-06	0.012566721160500977
5.05800e-06	0.012550382769005318
5.05825e-06	0.012534044377509717
5.05850e-06	0.012517705986014115
5.05875e-06	0.012501367594518456
5.05900e-06	0.012485029203022854
5.05925e-06	0.012466222115947913
5.05950e-06	0.012445782578971951
5.05975e-06	0.012425343041995988
5.06000e-06	0.012404903505019957
5.06025e-06	0.012384463968043994
5.06050e-06	0.01236402443106803
5.06075e-06	0.012343584894091998
5.06100e-06	0.012323145357116035
5.06125e-06	0.012302705820140073
5.06150e-06	0.01228226628316404
5.06175e-06	0.012261826746188078
5.06200e-06	0.012241387209212116
5.06225e-06	0.012220947672236084
5.06250e-06	0.012200508135260121
5.06275e-06	0.012190197316336571
5.06300e-06	0.01218658421458824
5.06325e-06	0.012182971112839919
5.06350e-06	0.012179358011091587
5.06375e-06	0.012175744909343268
5.06400e-06	0.012172131807594948
5.06425e-06	0.012168518705846615
5.06450e-06	0.012164905604098296
5.06475e-06	0.012161292502349976
5.06500e-06	0.012157679400601643
5.06525e-06	0.012154066298853324
5.06550e-06	0.012150453197105004
5.06575e-06	0.012146840095356673
5.06600e-06	0.012153466531126846
5.06625e-06	0.012166863964563679
5.06650e-06	0.012180261398000557
5.06675e-06	0.012193658831437392
5.06700e-06	0.012207056264874226
5.06725e-06	0.012220453698311104
5.06750e-06	0.01223385113174794
5.06775e-06	0.012247248565184818
5.06800e-06	0.012260645998621653
5.06825e-06	0.012274043432058486
5.06850e-06	0.012287440865495365
5.06875e-06	0.0123008382989322
5.06900e-06	0.012314235732369033
5.06925e-06	0.012330800488835137
5.06950e-06	0.012349459669663642
5.06975e-06	0.01236811885049215
5.07000e-06	0.01238677803132072
5.07025e-06	0.012405437212149225
5.07050e-06	0.012424096392977731
5.07075e-06	0.012442755573806301
5.07100e-06	0.012461414754634807
5.07125e-06	0.012480073935463312
5.07150e-06	0.012498733116291882
5.07175e-06	0.012516812111270167
5.07200e-06	0.01252978055637826
5.07225e-06	0.012542749001486308
5.07250e-06	0.012555717446594356
5.07275e-06	0.01256868589170245
5.07300e-06	0.012581654336810497
5.07325e-06	0.012594622781918545
5.07350e-06	0.012607591227026638
5.07375e-06	0.012620559672134686
5.07400e-06	0.012633528117242734
5.07425e-06	0.012646496562350827
5.07450e-06	0.012653562678431223
5.07475e-06	0.012656725819792776
5.07500e-06	0.012659888961154341
5.07525e-06	0.012663052102515894
5.07550e-06	0.012666215243877448
5.07575e-06	0.012669378385239011
5.07600e-06	0.012672541526600566
5.07625e-06	0.01267570466796213
5.07650e-06	0.012678867809323683
5.07675e-06	0.012682030950685236
5.07700e-06	0.012685194092046801
5.07725e-06	0.012688357233408354
5.07750e-06	0.012691520374769907
5.07775e-06	0.012694683516131471
5.07800e-06	0.012697846657493026
5.07825e-06	0.012701009798854579
5.07850e-06	0.012704172940216142
5.07875e-06	0.012707336081577696
5.07900e-06	0.01271049922293925
5.07925e-06	0.01271010681240366
5.07950e-06	0.012706531140457953
5.07975e-06	0.012702955468512247
5.08000e-06	0.012699379796566528
5.08025e-06	0.012695804124620822
5.08050e-06	0.012692228452675104
5.08075e-06	0.012688652780729398
5.08100e-06	0.01268507710878369
5.08125e-06	0.012681501436837972
5.08150e-06	0.012677925764892265
5.08175e-06	0.01267435009294656
5.08200e-06	0.012670774421000841
5.08225e-06	0.012667198749055135
5.08250e-06	0.012663623077109429
5.08275e-06	0.012660047405163709
5.08300e-06	0.012656471733218003
5.08325e-06	0.012652896061272297
5.08350e-06	0.012649320389326578
5.08375e-06	0.012645744717380872
5.08400e-06	0.012640389195156232
5.08425e-06	0.012632887033616688
5.08450e-06	0.012625384872077169
5.08475e-06	0.012617882710537652
5.08500e-06	0.012610380548998107
5.08525e-06	0.01260287838745859
5.08550e-06	0.012595376225919044
5.08575e-06	0.012587874064379527
5.08600e-06	0.012580371902840008
5.08625e-06	0.012572869741300464
5.08650e-06	0.012565367579760945
5.08675e-06	0.012557865418221426
5.08700e-06	0.012550363256681882
5.08725e-06	0.012542861095142363
5.08750e-06	0.012535358933602844
5.08775e-06	0.0125278567720633
5.08800e-06	0.012520354610523782
5.08825e-06	0.012512852448984264
5.08850e-06	0.01250535028744472
5.08875e-06	0.012497848125905202
5.08900e-06	0.01248919470795908
5.08925e-06	0.012480484883720984
5.08950e-06	0.012471775059482916
5.08975e-06	0.012463065235244819
5.09000e-06	0.012454355411006753
5.09025e-06	0.012445645586768686
5.09050e-06	0.012436935762530589
5.09075e-06	0.012428225938292521
5.09100e-06	0.012419516114054454
5.09125e-06	0.012410806289816357
5.09150e-06	0.01240209646557829
5.09175e-06	0.012393386641340223
5.09200e-06	0.012384676817102126
5.09225e-06	0.012375966992864059
5.09250e-06	0.012367257168625991
5.09275e-06	0.012358547344387894
5.09300e-06	0.012349837520149827
5.09325e-06	0.01234112769591176
5.09350e-06	0.012332417871673664
5.09375e-06	0.012323611644807334
5.09400e-06	0.012314689148795025
5.09425e-06	0.012305766652782747
5.09450e-06	0.01229684415677047
5.09475e-06	0.01228792166075816
5.09500e-06	0.012278999164745882
5.09525e-06	0.012270076668733605
5.09550e-06	0.012261154172721295
5.09575e-06	0.012252231676709018
5.09600e-06	0.01224330918069674
5.09625e-06	0.01223438668468443
5.09650e-06	0.012225464188672153
5.09675e-06	0.012216541692659875
5.09700e-06	0.012207619196647567
5.09725e-06	0.01219869670063529
5.09750e-06	0.01218977420462301
5.09775e-06	0.012180851708610703
5.09800e-06	0.012171929212598425
5.09825e-06	0.01216207079863105
5.09850e-06	0.012152166528969829
5.09875e-06	0.012142262259308605
5.09900e-06	0.012132357989647348
5.09925e-06	0.012122453719986125
5.09950e-06	0.012112549450324903
5.09975e-06	0.012102645180663646
5.10000e-06	0.012092740911002422
5.10025e-06	0.012082836641341198
5.10050e-06	0.012072932371679942
5.10075e-06	0.01206302810201872
5.10100e-06	0.012053123832357496
5.10125e-06	0.01204321956269624
5.10150e-06	0.012033315293035016
5.10175e-06	0.012023411023373794
5.10200e-06	0.012013506753712537
5.10225e-06	0.012003602484051313
5.10250e-06	0.011997293648147589
5.10275e-06	0.011995321187919124
5.10300e-06	0.01199334872769066
5.10325e-06	0.01199137626746219
5.10350e-06	0.011989403807233725
5.10375e-06	0.011987431347005261
5.10400e-06	0.01198545888677679
5.10425e-06	0.011983486426548326
5.10450e-06	0.011981513966319862
5.10475e-06	0.01197954150609139
5.10500e-06	0.011977569045862927
5.10525e-06	0.011975596585634463
5.10550e-06	0.011985876550140072
5.10575e-06	0.01199675682734873
5.10600e-06	0.012007637104557389
5.10625e-06	0.012018517381766083
5.10650e-06	0.012029397658974742
5.10675e-06	0.012040277936183438
5.10700e-06	0.012051158213392097
5.10725e-06	0.012062038490600755
5.10750e-06	0.01207291876780945
5.10775e-06	0.012083799045018108
5.10800e-06	0.012094679322226767
5.10825e-06	0.0121083982975615
5.10850e-06	0.012125540965927934
5.10875e-06	0.012142683634294365
5.10900e-06	0.012159826302660855
5.10925e-06	0.012176968971027288
5.10950e-06	0.012194456208027423
5.10975e-06	0.012212359021879317
5.11000e-06	0.01223026183573115
5.11025e-06	0.012248164649582984
5.11050e-06	0.012266067463434878
5.11075e-06	0.01228362748173345
5.11100e-06	0.0122984699013965
5.11125e-06	0.012310533322705495
5.11150e-06	0.012322596744014489
5.11175e-06	0.012334660165323523
5.11200e-06	0.012346723586632517
5.11225e-06	0.012358787007941512
5.11250e-06	0.012370850429250548
5.11275e-06	0.012382913850559542
5.11300e-06	0.012394977271868536
5.11325e-06	0.01240704069317757
5.11350e-06	0.012419104114486565
5.11375e-06	0.012431167535795559
5.11400e-06	0.012443230957104595
5.11425e-06	0.012455294378413589
5.11450e-06	0.012467357799722583
5.11475e-06	0.012478417573065663
5.11500e-06	0.012488266868085768
5.11525e-06	0.012498116163105904
5.11550e-06	0.012507965458126007
5.11575e-06	0.01251781475314611
5.11600e-06	0.012527664048166248
5.11625e-06	0.012537513343186351
5.11650e-06	0.012547362638206454
5.11675e-06	0.012557211933226592
5.11700e-06	0.012567061228246695
5.11725e-06	0.012576910523266798
5.11750e-06	0.012586759818286936
5.11775e-06	0.012596609113307039
5.11800e-06	0.012606458408327142
5.11825e-06	0.012616307703347278
5.11850e-06	0.012625824756864381
5.11875e-06	0.012634941101018262
5.11900e-06	0.012644057445172174
5.11925e-06	0.012653173789326054
5.11950e-06	0.012662290133479966
5.11975e-06	0.012671406477633847
5.12000e-06	0.01268052282178773
5.12025e-06	0.012689639165941641
5.12050e-06	0.012698755510095522
5.12075e-06	0.012707871854249403
5.12100e-06	0.012716988198403315
5.12125e-06	0.012726104542557196
5.12150e-06	0.012735220886711076
5.12175e-06	0.012744337230864988
5.12200e-06	0.01275345357501887
5.12225e-06	0.012760031487142016
5.12250e-06	0.012763547850742917
5.12275e-06	0.012767064214343806
5.12300e-06	0.012770580577944697
5.12325e-06	0.012774096941545599
5.12350e-06	0.012777613305146488
5.12375e-06	0.01278112966874739
5.12400e-06	0.01278464603234828
5.12425e-06	0.01278816239594917
5.12450e-06	0.012791678759550071
5.12475e-06	0.01279519512315096
5.12500e-06	0.012798711486751851
5.12525e-06	0.012802227850352753
5.12550e-06	0.012805744213953642
5.12575e-06	0.012809260577554533
5.12600e-06	0.012810915851276299
5.12625e-06	0.012810326504342549
5.12650e-06	0.012809737157408801
5.12675e-06	0.012809147810475048
5.12700e-06	0.0128085584635413
5.12725e-06	0.01280796911660755
5.12750e-06	0.0128073797696738
5.12775e-06	0.01280679042274005
5.12800e-06	0.012806201075806298
5.12825e-06	0.012805611728872549
5.12850e-06	0.0128050223819388
5.12875e-06	0.012804433035005048
5.12900e-06	0.012803843688071298
5.12925e-06	0.012803254341137549
5.12950e-06	0.012802664994203797
5.12975e-06	0.012802075647270048
5.13000e-06	0.012801486300336298
5.13025e-06	0.012800896953402547
5.13050e-06	0.012800307606468797
5.13075e-06	0.012799718259535048
5.13100e-06	0.012799128912601297
5.13125e-06	0.012798539565667547
5.13150e-06	0.012797950218733797
5.13175e-06	0.012797360871800046
5.13200e-06	0.012796771524866296
5.13225e-06	0.012796182177932545
5.13250e-06	0.012795592830998796
5.13275e-06	0.012795003484065048
5.13300e-06	0.012794414137131296
5.13325e-06	0.012793824790197547
5.13350e-06	0.012793235443263797
5.13375e-06	0.012792653450119923
5.13400e-06	0.01279208032622457
5.13425e-06	0.012791507202329218
5.13450e-06	0.012790934078433862
5.13475e-06	0.01279036095453851
5.13500e-06	0.012789787830643157
5.13525e-06	0.012789214706747803
5.13550e-06	0.012788641582852448
5.13575e-06	0.012788068458957096
5.13600e-06	0.012787495335061742
5.13625e-06	0.012786922211166389
5.13650e-06	0.012786349087271033
5.13675e-06	0.01278577596337568
5.13700e-06	0.012785202839480328
5.13725e-06	0.012784629715584974
5.13750e-06	0.01278405659168962
5.13775e-06	0.012783483467794267
5.13800e-06	0.012782910343898913
5.13825e-06	0.01278233722000356
5.13850e-06	0.012781764096108207
5.13875e-06	0.012781190972212851
5.13900e-06	0.012780617848317499
5.13925e-06	0.012780044724422146
5.13950e-06	0.012779471600526792
5.13975e-06	0.012778898476631438
5.14000e-06	0.012778325352736085
5.14025e-06	0.012777752228840731
5.14050e-06	0.012777179104945378
5.14075e-06	0.012776605981050022
5.14100e-06	0.01277603285715467
5.14125e-06	0.012775459733259317
5.14150e-06	0.0127741103699354
5.14175e-06	0.012771824800857007
5.14200e-06	0.012769539231778615
5.14225e-06	0.012767253662700215
5.14250e-06	0.012764968093621822
5.14275e-06	0.012762682524543429
5.14300e-06	0.012760396955465029
5.14325e-06	0.012758111386386637
5.14350e-06	0.012755825817308244
5.14375e-06	0.01274791967702183
5.14400e-06	0.012733234686145579
5.14425e-06	0.012718549695269327
5.14450e-06	0.012703864704393027
5.14475e-06	0.012689179713516777
5.14500e-06	0.012674494722640477
5.14525e-06	0.012659809731764225
5.14550e-06	0.012645124740887975
5.14575e-06	0.012630439750011675
5.14600e-06	0.012607985310113692
5.14625e-06	0.012576160304105547
5.14650e-06	0.012544335298097295
5.14675e-06	0.012512510292089152
5.14700e-06	0.012480685286081008
5.14725e-06	0.012448860280072756
5.14750e-06	0.012417035274064613
5.14775e-06	0.012385210268056468
5.14800e-06	0.012353385262048216
5.14825e-06	0.012321560256040073
5.14850e-06	0.012289735250031929
5.14875e-06	0.012257910244023677
5.14900e-06	0.012226085238015534
5.14925e-06	0.012190418158924892
5.14950e-06	0.01215456283584864
5.14975e-06	0.012118707512772386
5.15000e-06	0.012082852189696012
5.15025e-06	0.012046996866619758
5.15050e-06	0.012011141543543505
5.15075e-06	0.01197528622046713
5.15100e-06	0.011939430897390878
5.15125e-06	0.011903575574314625
5.15150e-06	0.01186772025123825
5.15175e-06	0.011831864928161998
