Time(s)	Current(A)
9.75000e-06	-0.008620231587363046
9.75025e-06	-0.00861360289893822
9.75050e-06	-0.008610054739712433
9.75075e-06	-0.008607651617029071
9.75100e-06	-0.008605248494345694
9.75125e-06	-0.0086066314476254
9.75150e-06	-0.008609421690058953
9.75175e-06	-0.00861221193249249
9.75200e-06	-0.008620726213019049
9.75225e-06	-0.008631368125638321
9.75250e-06	-0.008642010038257522
9.75275e-06	-0.008652651950876795
9.75300e-06	-0.008663293863496069
9.75325e-06	-0.008673935776115268
9.75350e-06	-0.008690744857722048
9.75375e-06	-0.008709846283727434
9.75400e-06	-0.008728947709732688
9.75425e-06	-0.008748049135738074
9.75450e-06	-0.008767150561743459
9.75475e-06	-0.008786251987748715
9.75500e-06	-0.008809026348062144
9.75525e-06	-0.008833165942635387
9.75550e-06	-0.008857305537208465
9.75575e-06	-0.008881445131781705
9.75600e-06	-0.008905584726354946
9.75625e-06	-0.008929724320928024
9.75650e-06	-0.00895382535867226
9.75675e-06	-0.00897779659878009
9.75700e-06	-0.009001767838887757
9.75725e-06	-0.009025739078995587
9.75750e-06	-0.009049710319103416
9.75775e-06	-0.009073681559211084
9.75800e-06	-0.009097652799318914
9.75825e-06	-0.009118743288203064
9.75850e-06	-0.009138762998266863
9.75875e-06	-0.009158782708330798
9.75900e-06	-0.009175489347319397
9.75925e-06	-0.009190964513659961
9.75950e-06	-0.00920643968000063
9.75975e-06	-0.009218168602369068
9.76000e-06	-0.009228505041183869
9.76025e-06	-0.009238841479998596
9.76050e-06	-0.009242858385498985
9.76075e-06	-0.009244526312589927
9.76100e-06	-0.009246194239680858
9.76125e-06	-0.0092478621667718
9.76150e-06	-0.009249530093862741
9.76175e-06	-0.009251198020953671
9.76200e-06	-0.0092503007868221
9.76225e-06	-0.009240768198789506
9.76250e-06	-0.009231235610756974
9.76275e-06	-0.00922170302272438
9.76300e-06	-0.009212170434691783
9.76325e-06	-0.009202637846659253
9.76350e-06	-0.009193105258626657
9.76375e-06	-0.009177501826084122
9.76400e-06	-0.009159641853070843
9.76425e-06	-0.009141781880057442
9.76450e-06	-0.00912392190704404
9.76475e-06	-0.00910606193403076
9.76500e-06	-0.009088201961017358
9.76525e-06	-0.009067147733945926
9.76550e-06	-0.009044906198659969
9.76575e-06	-0.00902266466337386
9.76600e-06	-0.009000423128087751
9.76625e-06	-0.008978181592801794
9.76650e-06	-0.008955940057515684
9.76675e-06	-0.008933170408877991
9.76700e-06	-0.008910204459849415
9.76725e-06	-0.008887583080170496
9.76750e-06	-0.008865089777348383
9.76775e-06	-0.00884336199559422
9.76800e-06	-0.008821918758974985
9.76825e-06	-0.008802045604368416
9.76850e-06	-0.00878275605120298
9.76875e-06	-0.008763466498037676
9.76900e-06	-0.00874653020076666
9.76925e-06	-0.008730468611644842
9.76950e-06	-0.008714407022523133
9.76975e-06	-0.008698402691887685
9.77000e-06	-0.008682419644302993
9.77025e-06	-0.008666436596718409
9.77050e-06	-0.008650066997771185
9.77075e-06	-0.008633553717200678
9.77100e-06	-0.008617040436630283
9.77125e-06	-0.00859975518492536
9.77150e-06	-0.008582182990587515
9.77175e-06	-0.00856461079624979
9.77200e-06	-0.008547038601911945
9.77225e-06	-0.0085294664075741
9.77250e-06	-0.008511319485292688
9.77275e-06	-0.008491237799944698
9.77300e-06	-0.008471156114596706
9.77325e-06	-0.008451074429248853
9.77350e-06	-0.008430992743900861
9.77375e-06	-0.008410911058552871
9.77400e-06	-0.008389362447680992
9.77425e-06	-0.008367268578763104
9.77450e-06	-0.008345174709845214
9.77475e-06	-0.008323080840927475
9.77500e-06	-0.008300862077051973
9.77525e-06	-0.008278222867026504
9.77550e-06	-0.008255583657001188
9.77575e-06	-0.00823294444697572
9.77600e-06	-0.00821030523695025
9.77625e-06	-0.008187624384389395
9.77650e-06	-0.008165061807259621
9.77675e-06	-0.008142779112199544
9.77700e-06	-0.008120906510151609
9.77725e-06	-0.008099550370504782
9.77750e-06	-0.008078743981462645
9.77775e-06	-0.008058484435072184
9.77800e-06	-0.008038826744556244
9.77825e-06	-0.008019887841410696
9.77850e-06	-0.00800179700525555
9.77875e-06	-0.007984684795469363
9.77900e-06	-0.00796868184958054
9.77925e-06	-0.007954024469633515
9.77950e-06	-0.00794123410859738
9.77975e-06	-0.007930924934634815
9.78000e-06	-0.0079233993016286
9.78025e-06	-0.007918669661771518
9.78050e-06	-0.007916683182044897
9.78075e-06	-0.007917386777062049
9.78100e-06	-0.007920726003527423
9.78125e-06	-0.00792777467507217
9.78150e-06	-0.00793593818309999
9.78175e-06	-0.007948608250849988
9.78200e-06	-0.00796295341246679
9.78225e-06	-0.007984000381927007
9.78250e-06	-0.008007538421717107
9.78275e-06	-0.008031076461507367
9.78300e-06	-0.008054614501297627
9.78325e-06	-0.008080633187197869
9.78350e-06	-0.008115002715491478
9.78375e-06	-0.008149372243785088
9.78400e-06	-0.008183741772078465
9.78425e-06	-0.008218111300372075
9.78450e-06	-0.008257593355175308
9.78475e-06	-0.008298975742455493
9.78500e-06	-0.008340358129735957
9.78525e-06	-0.00838419380552301
9.78550e-06	-0.008428941371706416
9.78575e-06	-0.008473688937889521
9.78600e-06	-0.008519687138047771
9.78625e-06	-0.008566150200413621
9.78650e-06	-0.008612613262779156
9.78675e-06	-0.008658797727529548
9.78700e-06	-0.008704878637198947
9.78725e-06	-0.008749816187685845
9.78750e-06	-0.008794328750139592
9.78775e-06	-0.00883703800975017
9.78800e-06	-0.008879076979445453
9.78825e-06	-0.008917624086745566
9.78850e-06	-0.008954873264439887
9.78875e-06	-0.008992122442133956
9.78900e-06	-0.009023597791749202
9.78925e-06	-0.009052927002268993
9.78950e-06	-0.009082256212788586
9.78975e-06	-0.009102669006367652
9.79000e-06	-0.00911976755665328
9.79025e-06	-0.009136866106938793
9.79050e-06	-0.009153964657224421
9.79075e-06	-0.00917106320751005
9.79100e-06	-0.009188161757795563
9.79125e-06	-0.00920526030808119
9.79150e-06	-0.009210366196107104
9.79175e-06	-0.009211014396619033
9.79200e-06	-0.009211662597130967
9.79225e-06	-0.0092123107976429
9.79250e-06	-0.009212958998154828
9.79275e-06	-0.009213607198666762
9.79300e-06	-0.009214255399178696
9.79325e-06	-0.00920561821953925
9.79350e-06	-0.009193529652520729
9.79375e-06	-0.009181441085502208
9.79400e-06	-0.009169352518483685
9.79425e-06	-0.009157263951465246
9.79450e-06	-0.009145175384446725
9.79475e-06	-0.009131388019951316
9.79500e-06	-0.009111881826827118
9.79525e-06	-0.009092375633702786
9.79550e-06	-0.009072869440578455
9.79575e-06	-0.009053363247454257
9.79600e-06	-0.009033857054329925
9.79625e-06	-0.009014350861205594
9.79650e-06	-0.008993296164632193
9.79675e-06	-0.00897166588739589
9.79700e-06	-0.008950035610159588
9.79725e-06	-0.008928473794157118
9.79750e-06	-0.008906937425280422
9.79775e-06	-0.008886076955492666
9.79800e-06	-0.00886546771823914
9.79825e-06	-0.008845994371669337
9.79850e-06	-0.008826943237083003
9.79875e-06	-0.008809423484109128
9.79900e-06	-0.008792472947589839
9.79925e-06	-0.008778004555138124
9.79950e-06	-0.008764458778731292
9.79975e-06	-0.008750913002324369
9.80000e-06	-0.008740802961416827
9.80025e-06	-0.008731969987678376
9.80050e-06	-0.008723137013939864
9.80075e-06	-0.008720052921058508
9.80100e-06	-0.00871910569435993
9.80125e-06	-0.008718158467661346
9.80150e-06	-0.008717211240962763
9.80175e-06	-0.008716264014264185
9.80200e-06	-0.0087153167875656
9.80225e-06	-0.008716681428331017
9.80250e-06	-0.008725828735378513
9.80275e-06	-0.008734976042425947
9.80300e-06	-0.008744123349473443
9.80325e-06	-0.008753270656520939
9.80350e-06	-0.008762417963568374
9.80375e-06	-0.00877156527061587
9.80400e-06	-0.008786284181790031
9.80425e-06	-0.008803074065165084
9.80450e-06	-0.008819863948540252
9.80475e-06	-0.00883665383191542
9.80500e-06	-0.008853443715290475
9.80525e-06	-0.008870233598665643
9.80550e-06	-0.008887023482040811
9.80575e-06	-0.00890606807593039
9.80600e-06	-0.008925950748529773
9.80625e-06	-0.008945833421129158
9.80650e-06	-0.008965716093728407
9.80675e-06	-0.00898559876632779
9.80700e-06	-0.009005481438927173
9.80725e-06	-0.009025364111526423
9.80750e-06	-0.009044356092967994
9.80775e-06	-0.009063017003395565
9.80800e-06	-0.009081677913823008
9.80825e-06	-0.009098906230501176
9.80850e-06	-0.009115602050296307
9.80875e-06	-0.009130660571595284
9.80900e-06	-0.00914511050700173
9.80925e-06	-0.009157204810174287
9.80950e-06	-0.00916842352190803
9.80975e-06	-0.009174866015871431
9.81000e-06	-0.009179533183733709
9.81025e-06	-0.009184200351595954
9.81050e-06	-0.009182837272941231
9.81075e-06	-0.009179232744136602
9.81100e-06	-0.009175628215331974
9.81125e-06	-0.009165898386396674
9.81150e-06	-0.009153891775764705
9.81175e-06	-0.009141885165132735
9.81200e-06	-0.009121760221496822
9.81225e-06	-0.009098617683359917
9.81250e-06	-0.00907547514522301
9.81275e-06	-0.009052332607086261
9.81300e-06	-0.009026599079212643
9.81325e-06	-0.008992143248360453
9.81350e-06	-0.008957687417508495
9.81375e-06	-0.008923231586656305
9.81400e-06	-0.008888775755804114
9.81425e-06	-0.008848687998340378
9.81450e-06	-0.008806506846731753
9.81475e-06	-0.008764325695123126
9.81500e-06	-0.008719618946366964
9.81525e-06	-0.008673973430001198
9.81550e-06	-0.008627218841649867
9.81575e-06	-0.008579440271959192
9.81600e-06	-0.008530988924452445
9.81625e-06	-0.00848212895774305
9.81650e-06	-0.008433139263867347
9.81675e-06	-0.008384300597505818
9.81700e-06	-0.008335891502258795
9.81725e-06	-0.008288175933166166
9.81750e-06	-0.008241381566001378
9.81775e-06	-0.008195723788647687
9.81800e-06	-0.008151461189700674
9.81825e-06	-0.00810889295167705
9.81850e-06	-0.008070207593355487
9.81875e-06	-0.008032786431425975
9.81900e-06	-0.007995365269496207
9.81925e-06	-0.007962899342975645
9.81950e-06	-0.00793227528363628
9.81975e-06	-0.007901651224297123
9.82000e-06	-0.007875131670524348
9.82025e-06	-0.007850137766589393
9.82050e-06	-0.007825143862654607
9.82075e-06	-0.007800149958719651
9.82100e-06	-0.007775156054784695
9.82125e-06	-0.007750162150849909
9.82150e-06	-0.007726630124982078
9.82175e-06	-0.00770801936269314
9.82200e-06	-0.007689408600404329
9.82225e-06	-0.007670797838115391
9.82250e-06	-0.007652187075826455
9.82275e-06	-0.007633576313537643
9.82300e-06	-0.007614965551248706
9.82325e-06	-0.0075993607942086774
9.82350e-06	-0.007584873373068701
9.82375e-06	-0.007570385951928626
9.82400e-06	-0.007555898530788551
9.82425e-06	-0.0075414111096485745
9.82450e-06	-0.0075269236885085
9.82475e-06	-0.0075143724755315595
9.82500e-06	-0.007502540953543725
9.82525e-06	-0.00749070943155581
9.82550e-06	-0.007478877909567895
9.82575e-06	-0.00746704638758006
9.82600e-06	-0.007455214865592145
9.82625e-06	-0.007444486757636454
9.82650e-06	-0.0074341687900527885
9.82675e-06	-0.007423850822469052
9.82700e-06	-0.007414313199790059
9.82725e-06	-0.007405065632285478
9.82750e-06	-0.0073963617375033975
9.82775e-06	-0.0073878599265503764
9.82800e-06	-0.0073796207012051624
9.82825e-06	-0.007371684462958927
9.82850e-06	-0.007364065255419398
9.82875e-06	-0.007356810828406127
9.82900e-06	-0.007349970037279231
9.82925e-06	-0.007343611252857808
9.82950e-06	-0.007337856081168526
9.82975e-06	-0.007332837178685583
9.83000e-06	-0.007328619750948543
9.83025e-06	-0.007325210488954362
9.83050e-06	-0.00732260333910631
9.83075e-06	-0.007320791229376065
9.83100e-06	-0.007320058659567924
9.83125e-06	-0.007319647480651233
9.83150e-06	-0.00732047013158787
9.83175e-06	-0.0073217513986199015
9.83200e-06	-0.007324603256879446
9.83225e-06	-0.007328038905857211
9.83250e-06	-0.007331474554834975
9.83275e-06	-0.0073370788520088935
9.83300e-06	-0.00734348923842223
9.83325e-06	-0.007349899624835565
9.83350e-06	-0.007356310011248857
9.83375e-06	-0.007362720397662194
9.83400e-06	-0.0073713067649790335
9.83425e-06	-0.00738070194711169
9.83450e-06	-0.007390097129244411
9.83475e-06	-0.007399492311377132
9.83500e-06	-0.00740888749350979
9.83525e-06	-0.00741936515524783
9.83550e-06	-0.007430245176005347
9.83575e-06	-0.007441125196762789
9.83600e-06	-0.007452373889750506
9.83625e-06	-0.007463759618666038
9.83650e-06	-0.007475145347581571
9.83675e-06	-0.0074864191621828256
9.83700e-06	-0.0074976513780939755
9.83725e-06	-0.0075088835940051255
9.83750e-06	-0.007519678563293281
9.83775e-06	-0.007530311007466379
9.83800e-06	-0.0075401533750553106
9.83825e-06	-0.007549702070192349
9.83850e-06	-0.007559250765329453
9.83875e-06	-0.007567405227640228
9.83900e-06	-0.007575041451870307
9.83925e-06	-0.007582677676100437
9.83950e-06	-0.0075896817937996216
9.83975e-06	-0.00759645095671274
9.84000e-06	-0.007603220119625903
9.84025e-06	-0.007610373732375874
9.84050e-06	-0.00761767024560969
9.84075e-06	-0.007624966758843556
9.84100e-06	-0.007632263272077422
9.84125e-06	-0.0076395597853112385
9.84150e-06	-0.007646856298545105
9.84175e-06	-0.0076541528117789704
9.84200e-06	-0.00766244447815185
9.84225e-06	-0.007671106044187938
9.84250e-06	-0.0076797676102240255
9.84275e-06	-0.007688429176260055
9.84300e-06	-0.007697090742296143
9.84325e-06	-0.007705752308332232
9.84350e-06	-0.007714413874368261
9.84375e-06	-0.007724193982186663
9.84400e-06	-0.007734389853380866
9.84425e-06	-0.007744585724575002
9.84450e-06	-0.007754781595769205
9.84475e-06	-0.007764977466963408
9.84500e-06	-0.007775173338157612
9.84525e-06	-0.007785369209351747
9.84550e-06	-0.007795578702865018
9.84575e-06	-0.0078058340545276534
9.84600e-06	-0.00781608940619022
9.84625e-06	-0.007826344757852856
9.84650e-06	-0.007836600109515491
9.84675e-06	-0.007846855461178057
9.84700e-06	-0.007857110812840695
9.84725e-06	-0.00786736616450333
9.84750e-06	-0.007876704746693896
9.84775e-06	-0.007885702564528115
9.84800e-06	-0.007894700382362332
9.84825e-06	-0.007901462895986954
9.84850e-06	-0.00790739454424837
9.84875e-06	-0.007913326192509788
9.84900e-06	-0.007919257840771163
9.84925e-06	-0.00792518948903258
9.84950e-06	-0.007931121137293997
9.84975e-06	-0.007937052785555372
9.85000e-06	-0.007942984433816788
9.85025e-06	-0.007947616198671154
9.85050e-06	-0.007947872038460767
9.85075e-06	-0.007948127878250383
9.85100e-06	-0.007948383718039999
9.85125e-06	-0.007948639557829611
9.85150e-06	-0.007948895397619227
9.85175e-06	-0.007949151237408842
9.85200e-06	-0.007949407077198455
9.85225e-06	-0.00794966291698807
9.85250e-06	-0.007946365263964266
9.85275e-06	-0.007941746773228607
9.85300e-06	-0.007937128282492918
9.85325e-06	-0.007932509791757228
9.85350e-06	-0.007927891301021539
9.85375e-06	-0.00792327281028588
9.85400e-06	-0.007918654319550189
9.85425e-06	-0.007913353148711926
9.85450e-06	-0.007905753804855803
9.85475e-06	-0.007898154460999627
9.85500e-06	-0.007890555117143452
9.85525e-06	-0.007882955773287327
9.85550e-06	-0.00787535642943115
9.85575e-06	-0.007867757085574975
9.85600e-06	-0.00786015774171885
9.85625e-06	-0.007851913074353178
9.85650e-06	-0.007843428539433917
9.85675e-06	-0.007834944004514713
9.85700e-06	-0.00782645946959545
9.85725e-06	-0.007817974934676189
9.85750e-06	-0.007809922078953866
9.85775e-06	-0.0078020296789275455
9.85800e-06	-0.007794137278901224
9.85825e-06	-0.007786244878874956
9.85850e-06	-0.007778352478848635
9.85875e-06	-0.007771263892916658
9.85900e-06	-0.00776447408568647
9.85925e-06	-0.0077585139607125745
9.85950e-06	-0.0077528622296685204
9.85975e-06	-0.007748743917099065
9.86000e-06	-0.007745195578089768
9.86025e-06	-0.00774374667919257
9.86050e-06	-0.0077430781448044285
9.86075e-06	-0.007742409610416282
9.86100e-06	-0.007744161548404453
9.86125e-06	-0.007746813178994807
9.86150e-06	-0.007749464809585179
9.86175e-06	-0.0077561780018757485
9.86200e-06	-0.007764400881717616
9.86225e-06	-0.00777262376155954
9.86250e-06	-0.007780846641401463
9.86275e-06	-0.007789069521243387
9.86300e-06	-0.007797292401085255
9.86325e-06	-0.0078100475277534985
9.86350e-06	-0.007824487296221838
9.86375e-06	-0.007838927064690082
9.86400e-06	-0.007853366833158421
9.86425e-06	-0.007867806601626762
9.86450e-06	-0.007882246370095004
9.86475e-06	-0.00789958842917674
9.86500e-06	-0.007918009273300655
9.86525e-06	-0.007936430117424443
9.86550e-06	-0.007954850961548356
9.86575e-06	-0.00797327180567227
9.86600e-06	-0.007991692649796059
9.86625e-06	-0.00801018246962576
9.86650e-06	-0.008028904489142265
9.86675e-06	-0.008047626508658643
9.86700e-06	-0.008066348528175147
9.86725e-06	-0.008085070547691652
9.86750e-06	-0.00810379256720803
9.86775e-06	-0.008122514586724534
9.86800e-06	-0.008139388753546238
9.86825e-06	-0.00815557607121552
9.86850e-06	-0.008171763388884912
9.86875e-06	-0.008185636830016338
9.86900e-06	-0.008198650200351352
9.86925e-06	-0.008211663570686454
9.86950e-06	-0.008221370433175376
9.86975e-06	-0.008229848262572044
9.87000e-06	-0.008238326091968768
9.87025e-06	-0.008242983218733143
9.87050e-06	-0.008246220185561634
9.87075e-06	-0.008249457152390147
9.87100e-06	-0.008247080997589041
9.87125e-06	-0.008242618438474233
9.87150e-06	-0.008238155879359456
9.87175e-06	-0.008233693320244647
9.87200e-06	-0.008229230761129839
9.87225e-06	-0.008222607581734367
9.87250e-06	-0.008208710894270069
9.87275e-06	-0.008194814206805772
9.87300e-06	-0.008180917519341567
9.87325e-06	-0.00816702083187727
9.87350e-06	-0.008153124144412972
9.87375e-06	-0.008133967362794406
9.87400e-06	-0.008112855397614962
9.87425e-06	-0.00809174343243552
9.87450e-06	-0.00807063146725622
9.87475e-06	-0.008049519502076776
9.87500e-06	-0.008025323047134573
9.87525e-06	-0.007999980083498823
9.87550e-06	-0.007974637119862902
9.87575e-06	-0.00794929415622698
9.87600e-06	-0.00792395119259123
9.87625e-06	-0.00789766909925252
9.87650e-06	-0.007871037930231391
9.87675e-06	-0.007844416945526188
9.87700e-06	-0.007819437384315849
9.87725e-06	-0.007795066535183311
9.87750e-06	-0.00778312032052352
9.87775e-06	-0.007746414468468673
9.87800e-06	-0.020536611263471262
9.87825e-06	-0.02849802647691075
9.87850e-06	-0.02417918703839382
9.87875e-06	-0.020612401583252137
9.87900e-06	-0.01042953717848702
9.87925e-06	-0.0019787405228049036
9.87950e-06	-0.0034773560378262174
9.87975e-06	-0.004575321870553689
9.88000e-06	-0.010599688305867104
9.88025e-06	-0.01569393951509005
9.88050e-06	-0.015083421394431995
9.88075e-06	-0.01178292650336469
9.88100e-06	-0.007357198942862601
9.88125e-06	-0.003559516942407402
9.88150e-06	-0.0033184528915937675
9.88175e-06	-0.005224901488162931
9.88200e-06	-0.008644163807344462
9.88225e-06	-0.011634363375489544
9.88250e-06	-0.011329222020599026
9.88275e-06	-0.009324109406347668
9.88300e-06	-0.006602383350758852
9.88325e-06	-0.0042647650658259135
9.88350e-06	-0.004147535749806227
9.88375e-06	-0.005369417373743945
9.88400e-06	-0.007533959385734279
9.88425e-06	-0.009425719502065744
9.88450e-06	-0.00925014945380433
9.88475e-06	-0.008007349775059435
9.88500e-06	-0.006313860298298731
9.88525e-06	-0.004859576302805589
9.88550e-06	-0.004794986474204764
9.88575e-06	-0.005568213657191506
9.88600e-06	-0.006931063596240185
9.88625e-06	-0.00812233460098912
9.88650e-06	-0.008018128123668975
9.88675e-06	-0.007245109252500018
9.88700e-06	-0.0061896146823175475
9.88725e-06	-0.005283879047259815
9.88750e-06	-0.005248586713085513
9.88775e-06	-0.0057380352051875525
9.88800e-06	-0.006596765244035808
9.88825e-06	-0.007347991755701291
9.88850e-06	-0.007287786974594984
9.88875e-06	-0.006808783984952392
9.88900e-06	-0.006153041411887165
9.88925e-06	-0.0055913337409282775
9.88950e-06	-0.005575049608470292
9.88975e-06	-0.005887554601342291
9.89000e-06	-0.006431411061979758
9.89025e-06	-0.00690794376266738
9.89050e-06	-0.006876233805521641
9.89075e-06	-0.006582254699635684
9.89100e-06	-0.0061776418735430775
9.89125e-06	-0.005832002437743225
9.89150e-06	-0.0058280598945980875
9.89175e-06	-0.006030082027685431
9.89200e-06	-0.006377009261577726
9.89225e-06	-0.006681739153926949
9.89250e-06	-0.006668088084020309
9.89275e-06	-0.006490147538888699
9.89300e-06	-0.006242902710367138
9.89325e-06	-0.006032589068740706
9.89350e-06	-0.006036283368728307
9.89375e-06	-0.006168938054477186
9.89400e-06	-0.00639228650954525
9.89425e-06	-0.006589115657270702
9.89450e-06	-0.006586426535226136
9.89475e-06	-0.006480745823480273
9.89500e-06	-0.006331569715497636
9.89525e-06	-0.0062054355508753285
9.89550e-06	-0.0062132468466723255
9.89575e-06	-0.006301711758197789
9.89600e-06	-0.0064468440427551945
9.89625e-06	-0.006575210150432726
9.89650e-06	-0.0065784410368893735
9.89675e-06	-0.006517000112979834
9.89700e-06	-0.006428149950731485
