Time(s)	Current(A)
4.50000e-06	0.0007253236157717443
4.50025e-06	0.0006962745296200013
4.50050e-06	0.0006672254434683567
4.50075e-06	0.0006417667984939711
4.50100e-06	0.0006193121455586285
4.50125e-06	0.0005986571104855258
4.50150e-06	0.0005795077504714001
4.50175e-06	0.0005623280679210088
4.50200e-06	0.0005467963431364856
4.50225e-06	0.0005325801558218508
4.50250e-06	0.0005194646310418011
4.50275e-06	0.0005077553358474805
4.50300e-06	0.0004972225819949741
4.50325e-06	0.0004866898281424319
4.50350e-06	0.00047781106977086316
4.50375e-06	0.0004703161494882385
4.50400e-06	0.0004641636124925369
4.50425e-06	0.0004591341989538624
4.50450e-06	0.0004541047854151708
4.50475e-06	0.00045017857781685293
4.50500e-06	0.00044717538265585304
4.50525e-06	0.000444172187494843
4.50550e-06	0.0004423536204620287
4.50575e-06	0.0004415261888608669
4.50600e-06	0.0004406987572597024
4.50625e-06	0.0004408990532978405
4.50650e-06	0.00044195921181361966
4.50675e-06	0.0004430193703294024
4.50700e-06	0.0004440795288451815
4.50725e-06	0.0004451396873609607
4.50750e-06	0.0004461998458767434
4.50775e-06	0.0004473018481235722
4.50800e-06	0.0004493030454158262
4.50825e-06	0.00045130424270808695
4.50850e-06	0.00045330544000034094
4.50875e-06	0.0004553066372926017
4.50900e-06	0.0004573078345848557
4.50925e-06	0.00045930903187710976
4.50950e-06	0.00046151339828020004
4.50975e-06	0.00046388774891677664
4.51000e-06	0.00046626209955335325
4.51025e-06	0.00046863645018993793
4.51050e-06	0.00047101080082651454
4.51075e-06	0.00047338515146309114
4.51100e-06	0.0004757595020996758
4.51125e-06	0.00047813385273625243
4.51150e-06	0.00048050820337282904
4.51175e-06	0.00048288255400941366
4.51200e-06	0.00048525690464599027
4.51225e-06	0.00048763125528256693
4.51250e-06	0.0004900056059191516
4.51275e-06	0.0004923799565557282
4.51300e-06	0.0004947543071923128
4.51325e-06	0.0004983686593832911
4.51350e-06	0.0005030204759451094
4.51375e-06	0.0005076722925069432
4.51400e-06	0.0005123241090687613
4.51425e-06	0.0005169759256305795
4.51450e-06	0.0005216277421924133
4.51475e-06	0.0005262795587542314
4.51500e-06	0.0005309313753160496
4.51525e-06	0.0005355831918778834
4.51550e-06	0.0005402350084397015
4.51575e-06	0.0005448868250015196
4.51600e-06	0.0005495386415633536
4.51625e-06	0.0005541904581251717
4.51650e-06	0.0005588422746869899
4.51675e-06	0.0005634940912488237
4.51700e-06	0.000568134402686854
4.51725e-06	0.0005727650882046994
4.51750e-06	0.0005773957737225292
4.51775e-06	0.000582026459240359
4.51800e-06	0.0005866571447582044
4.51825e-06	0.0005912878302760341
4.51850e-06	0.000595918515793864
4.51875e-06	0.0006005492013117094
4.51900e-06	0.0006051798868295391
4.51925e-06	0.0006098105723473688
4.51950e-06	0.0006143217629385071
4.51975e-06	0.0006162650839057645
4.52000e-06	0.0006182084048730218
4.52025e-06	0.0006201517258402858
4.52050e-06	0.0006220950468075431
4.52075e-06	0.0006240383677748005
4.52100e-06	0.0006259816887420643
4.52125e-06	0.0006279250097093217
4.52150e-06	0.0006298683306765856
4.52175e-06	0.000631811651643843
4.52200e-06	0.0006337549726111003
4.52225e-06	0.0006339011152500216
4.52250e-06	0.0006325436239001313
4.52275e-06	0.000631186132550241
4.52300e-06	0.000629828641200346
4.52325e-06	0.0006284711498504557
4.52350e-06	0.0006271136585005654
4.52375e-06	0.0006257561671506705
4.52400e-06	0.0006243986758007801
4.52425e-06	0.0006230411844508897
4.52450e-06	0.0006216836931009948
4.52475e-06	0.0006202359237615965
4.52500e-06	0.0006168481381118717
4.52525e-06	0.0006134603524621353
4.52550e-06	0.0006100725668124106
4.52575e-06	0.0006066847811626743
4.52600e-06	0.0006032969955129494
4.52625e-06	0.0005999092098632246
4.52650e-06	0.0005965214242134884
4.52675e-06	0.0005931336385637635
4.52700e-06	0.0005897458529140387
4.52725e-06	0.0005863580672643023
4.52750e-06	0.0005831767621859849
4.52775e-06	0.000580168211920181
4.52800e-06	0.0005771596616543669
4.52825e-06	0.0005741511113885629
4.52850e-06	0.000571142561122759
4.52875e-06	0.0005681340108569448
4.52900e-06	0.0005651254605911408
4.52925e-06	0.0005621169103253369
4.52950e-06	0.0005591083600595228
4.52975e-06	0.0005560998097937188
4.53000e-06	0.0005530912595279047
4.53025e-06	0.0005500827092621008
4.53050e-06	0.0005470741589962969
4.53075e-06	0.0005440656087304827
4.53100e-06	0.0005417042556335833
4.53125e-06	0.0005398843889574336
4.53150e-06	0.0005380645222812778
4.53175e-06	0.0005362446556051282
4.53200e-06	0.0005344247889289786
4.53225e-06	0.0005326049222528227
4.53250e-06	0.0005307850555766731
4.53275e-06	0.0005289651889005235
4.53300e-06	0.0005271453222243678
4.53325e-06	0.0005253254555482181
4.53350e-06	0.0005235055888720685
4.53375e-06	0.0005216857221959127
4.53400e-06	0.0005198658555197631
4.53425e-06	0.0005180459888436073
4.53450e-06	0.0005163787450590424
4.53475e-06	0.0005148391953177363
4.53500e-06	0.000513299645576425
4.53525e-06	0.0005117600958351189
4.53550e-06	0.0005102205460938129
4.53575e-06	0.0005086809963525015
4.53600e-06	0.0005071414466111955
4.53625e-06	0.0005056018968698894
4.53650e-06	0.0005040623471285782
4.53675e-06	0.0005025354132424111
4.53700e-06	0.0005012795860217644
4.53725e-06	0.0005000237588011134
4.53750e-06	0.0004987679315804666
4.53775e-06	0.0004975121043598199
4.53800e-06	0.000496256277139169
4.53825e-06	0.0004950004499185222
4.53850e-06	0.0004937446226978712
4.53875e-06	0.0004924887954772245
4.53900e-06	0.0004912329682565778
4.53925e-06	0.0004901668903037776
4.53950e-06	0.0004892595686880122
4.53975e-06	0.0004883522470722467
4.54000e-06	0.0004884527541382775
4.54025e-06	0.0004893964749446676
4.54050e-06	0.0004924818977250094
4.54075e-06	0.0004973592049444566
4.54100e-06	0.0005042903637435432
4.54125e-06	0.0005129399057399626
4.54150e-06	0.0005234276031459238
4.54175e-06	0.0005354532185791547
4.54200e-06	0.0005496150691057659
4.54225e-06	0.000565564230130584
4.54250e-06	0.0005841309969699467
4.54275e-06	0.0006048878197479291
4.54300e-06	0.000627959383155307
4.54325e-06	0.0006529676061748474
4.54350e-06	0.000679907698029697
4.54375e-06	0.00070846411453937
4.54400e-06	0.0007393882819332919
4.54425e-06	0.0007722934606988592
4.54450e-06	0.0008051986394643151
4.54475e-06	0.0008406674524637859
4.54500e-06	0.0008782811653359813
4.54525e-06	0.0009158948782080495
4.54550e-06	0.0009554556322496962
4.54575e-06	0.0009966454050887444
4.54600e-06	0.001037835177927653
4.54625e-06	0.0010790249507665619
4.54650e-06	0.00112021472360561
4.54675e-06	0.001161416540659755
4.54700e-06	0.0012028771802030367
4.54725e-06	0.0012443378197461781
4.54750e-06	0.0012857984592893194
4.54775e-06	0.001327259098832601
4.54800e-06	0.0013687197383757423
4.54825e-06	0.0014040937098057894
4.54850e-06	0.0014343751865710584
4.54875e-06	0.0014646566633362249
4.54900e-06	0.0014949381401013911
4.54925e-06	0.0015252196168666602
4.54950e-06	0.0015555010936318264
4.54975e-06	0.0015857825703969929
4.55000e-06	0.0016160640471622617
4.55025e-06	0.0016463455239274281
4.55050e-06	0.0016766270006925944
4.55075e-06	0.001706089014441141
4.55100e-06	0.0017179412916178598
4.55125e-06	0.001729793568794619
4.55150e-06	0.0017416458459713377
4.55175e-06	0.0017534981231480565
4.55200e-06	0.0017653504003248156
4.55225e-06	0.0017772026775015343
4.55250e-06	0.0017890549546782533
4.55275e-06	0.0018009072318550122
4.55300e-06	0.001812759509031731
4.55325e-06	0.00182461178620845
4.55350e-06	0.0018295620947583677
4.55375e-06	0.0018287377762458775
4.55400e-06	0.0018279134577333875
4.55425e-06	0.0018270891392208946
4.55450e-06	0.0018262648207084046
4.55475e-06	0.0018254405021959144
4.55500e-06	0.0018246161836834216
4.55525e-06	0.0018237918651709316
4.55550e-06	0.0018229675466584388
4.55575e-06	0.001821883386646502
4.55600e-06	0.0018152153988598776
4.55625e-06	0.0018085474110732306
4.55650e-06	0.0018018794232866062
4.55675e-06	0.001795211435499982
4.55700e-06	0.001788543447713335
4.55725e-06	0.0017818754599267105
4.55750e-06	0.0017752074721400861
4.55775e-06	0.0017685394843534393
4.55800e-06	0.001761871496566815
4.55825e-06	0.0017552034359945953
4.55850e-06	0.001748535314525283
4.55875e-06	0.0017418671930559933
4.55900e-06	0.0017351990715867036
4.55925e-06	0.0017285309501173913
4.55950e-06	0.0017218299929380324
4.55975e-06	0.0017144234173327316
4.56000e-06	0.0017070168417274562
4.56025e-06	0.0016996102661221806
4.56050e-06	0.00169220369051688
4.56075e-06	0.0016847971149116046
4.56100e-06	0.0016719199090358542
4.56125e-06	0.001654465625037591
4.56150e-06	0.0016370113410393871
4.56175e-06	0.0016195570570411834
4.56200e-06	0.0016021027730429203
4.56225e-06	0.0015846484890447165
4.56250e-06	0.0015671942050465126
4.56275e-06	0.0015497399210482495
4.56300e-06	0.0015322856370500457
4.56325e-06	0.001514224500612419
4.56350e-06	0.0014831224930632592
4.56375e-06	0.0014520204855142046
4.56400e-06	0.0014209184779650447
4.56425e-06	0.0013898164704159903
4.56450e-06	0.0013587144628669358
4.56475e-06	0.001327612455317776
4.56500e-06	0.0012965104477687215
4.56525e-06	0.0012654084402196671
4.56550e-06	0.0012343064326705072
4.56575e-06	0.0011999698890523686
4.56600e-06	0.0011629271263068695
4.56625e-06	0.001125884363561245
4.56650e-06	0.001088841600815746
4.56675e-06	0.001051798838070247
4.56700e-06	0.0010148027783057727
4.56725e-06	0.000978810335760196
4.56750e-06	0.0009428178932146192
4.56775e-06	0.0009068254506689205
4.56800e-06	0.0008708330081233437
4.56825e-06	0.0008348405655776449
4.56850e-06	0.0008011860291184281
4.56875e-06	0.0007694875339688157
4.56900e-06	0.0007377890388190959
4.56925e-06	0.0007084331257754636
4.56950e-06	0.0006810371662975919
4.56975e-06	0.0006561678986745896
4.57000e-06	0.0006334126225732587
4.57025e-06	0.0006106573464719278
4.57050e-06	0.0005891538011574883
4.57075e-06	0.0005686975336367029
4.57100e-06	0.000549605102288246
4.57125e-06	0.00053165374324715
4.57150e-06	0.0005137023842061148
4.57175e-06	0.0004976185010139218
4.57200e-06	0.0004830970671972708
4.57225e-06	0.0004685756333806689
4.57250e-06	0.0004549644061328254
4.57275e-06	0.000442114715740212
4.57300e-06	0.0004292650253475986
4.57325e-06	0.00041751507061523564
4.57350e-06	0.0004066852248614268
4.57375e-06	0.000395855379107618
4.57400e-06	0.00038599968393857373
4.57425e-06	0.0003769590252659231
4.57450e-06	0.0003679183665932724
4.57475e-06	0.00035996641606401725
4.57500e-06	0.0003529253481894925
4.57525e-06	0.00034588428031496777
4.57550e-06	0.0003388432124404192
4.57575e-06	0.00033180214456589443
4.57600e-06	0.0003247610766913697
4.57625e-06	0.0003177200088168211
4.57650e-06	0.00031067894094229635
4.57675e-06	0.0003049552110437451
4.57700e-06	0.00030033365009647406
4.57725e-06	0.000295712089149203
4.57750e-06	0.00029109052820191627
4.57775e-06	0.0002864689672546452
4.57800e-06	0.00028184740630737414
4.57825e-06	0.0002772258453600874
4.57850e-06	0.00027260428441281634
4.57875e-06	0.0002687360810403886
4.57900e-06	0.0002654981846531673
4.57925e-06	0.000262260288265957
4.57950e-06	0.0002590223918787467
4.57975e-06	0.0002557844954915254
4.58000e-06	0.00025255699449880533
4.58025e-06	0.0002495528838900465
4.58050e-06	0.0002465487732812775
4.58075e-06	0.0002435446626725187
4.58100e-06	0.0002405405520637497
4.58125e-06	0.00023753644145499086
4.58150e-06	0.00023411512262399997
4.58175e-06	0.00023034474079087098
4.58200e-06	0.00022657435895775477
4.58225e-06	0.00022280397712463857
4.58250e-06	0.00021903359529150957
4.58275e-06	0.00021526321345839337
4.58300e-06	0.00021149283162527713
4.58325e-06	0.00020772244979214816
4.58350e-06	0.00020395206795903193
4.58375e-06	0.00019954032067330676
4.58400e-06	0.00019459196615307587
4.58425e-06	0.0001896436116328618
4.58450e-06	0.00018469525711264768
4.58475e-06	0.00017974690259241682
4.58500e-06	0.0001747985480722027
4.58525e-06	0.00016985019355197185
4.58550e-06	0.00016490183903175777
4.58575e-06	0.00015995348451154366
4.58600e-06	0.00015480137572595413
4.58625e-06	0.0001494787931295475
4.58650e-06	0.00014415621053314088
4.58675e-06	0.00013883362793671623
4.58700e-06	0.0001335110453403096
4.58725e-06	0.00012820562865656872
4.58750e-06	0.00012326909646504465
4.58775e-06	0.0001183325642735373
4.58800e-06	0.00011339603208202994
4.58825e-06	0.00010845949989050587
4.58850e-06	0.00010352296769899852
4.58875e-06	9.891923114377355e-05
4.58900e-06	9.459393263862215e-05
4.58925e-06	9.046484562819969e-05
4.58950e-06	8.665483246208225e-05
4.58975e-06	8.316220697175746e-05
4.59000e-06	8.010489452264262e-05
4.59025e-06	7.767331166492003e-05
4.59050e-06	7.601004222150095e-05
4.59075e-06	7.514743183350484e-05
4.59100e-06	7.506990294757235e-05
4.59125e-06	7.575900308813685e-05
4.59150e-06	7.719627711223713e-05
4.59175e-06	7.937253915783952e-05
4.59200e-06	8.232240161967498e-05
4.59225e-06	8.612587895399004e-05
4.59250e-06	9.08330187215438e-05
4.59275e-06	9.642480917537111e-05
4.59300e-06	0.00010285222086896468
4.59325e-06	0.00011006443123841502
4.59350e-06	0.00011801061375823058
4.59375e-06	0.0001266457461588334
4.59400e-06	0.00013614031436360362
4.59425e-06	0.00014609833547352734
4.59450e-06	0.0001567651772684602
4.59475e-06	0.00016802506364641692
4.59500e-06	0.0001799615662929014
4.59525e-06	0.00019246416925416856
4.59550e-06	0.00020496677221539338
4.59575e-06	0.00021809307230503703
4.59600e-06	0.00023174119718245186
4.59625e-06	0.0002453893220598204
4.59650e-06	0.000259037446937189
4.59675e-06	0.00027269715472348226
4.59700e-06	0.000286605771818464
4.59725e-06	0.0003005143889134457
4.59750e-06	0.00031442300600847457
4.59775e-06	0.0003283316231034563
4.59800e-06	0.00034173769741932417
4.59825e-06	0.00035472331240144736
4.59850e-06	0.0003677089273835705
4.59875e-06	0.0003798598474151481
4.59900e-06	0.000391312408426686
4.59925e-06	0.00040276496943822393
4.59950e-06	0.000413112242075986
4.59975e-06	0.0004225347599814634
4.60000e-06	0.00043195727788694085
4.60025e-06	0.00044137979579245016
4.60050e-06	0.0004520468192030953
4.60075e-06	0.00046375507527524203
4.60100e-06	0.00047546333134742847
4.60125e-06	0.0004871715874195753
4.60150e-06	0.000498879843491722
4.60175e-06	0.0005105880995639085
4.60200e-06	0.000522493939199593
4.60225e-06	0.000538645723330812
4.60250e-06	0.0005547975074619764
4.60275e-06	0.0005709492915931408
4.60300e-06	0.0005871010757243599
4.60325e-06	0.0006032528598555242
4.60350e-06	0.0006194046439866886
4.60375e-06	0.0006380140645969449
4.60400e-06	0.000658679700596529
4.60425e-06	0.0006793453365961131
4.60450e-06	0.0007000109725957672
4.60475e-06	0.0007206766085953513
4.60500e-06	0.0007413422445949353
4.60525e-06	0.0007621236310632018
4.60550e-06	0.0007853924211191218
4.60575e-06	0.0008086612111750418
4.60600e-06	0.0008319300012310406
4.60625e-06	0.0008551987912869605
4.60650e-06	0.0008784675813429593
4.60675e-06	0.0009017363713988793
4.60700e-06	0.0009240528316427501
4.60725e-06	0.0009455725120407324
4.60750e-06	0.0009670921924386419
4.60775e-06	0.0009886118728365512
4.60800e-06	0.0010101315532345338
4.60825e-06	0.001031651233632443
4.60850e-06	0.0010531709140303525
4.60875e-06	0.0010746905944283348
4.60900e-06	0.0010959346480169671
4.60925e-06	0.0011112556576450066
4.60950e-06	0.0011265766672730981
4.60975e-06	0.0011418976769011376
4.61000e-06	0.001157218686529177
4.61025e-06	0.0011725396961572683
4.61050e-06	0.001187860705785308
4.61075e-06	0.0012031817154133993
4.61100e-06	0.0012185027250414388
4.61125e-06	0.001233348732395232
4.61150e-06	0.0012477973225580067
4.61175e-06	0.0012622459127207323
4.61200e-06	0.001276694502883458
4.61225e-06	0.0012911430930462328
4.61250e-06	0.0013055916832089586
4.61275e-06	0.0013200402733716844
4.61300e-06	0.001334488863534459
4.61325e-06	0.0013489374536971848
4.61350e-06	0.0013633860438599106
4.61375e-06	0.0013778346340226854
4.61400e-06	0.001392283224185411
4.61425e-06	0.0014067318143481367
4.61450e-06	0.0014212364537077421
4.61475e-06	0.0014369455544817852
4.61500e-06	0.0014526546552558813
4.61525e-06	0.001468363756029924
4.61550e-06	0.001484072856803967
4.61575e-06	0.0014997819575780632
4.61600e-06	0.001515491058352106
4.61625e-06	0.001531200159126149
4.61650e-06	0.0015469092599002452
4.61675e-06	0.001562618360674288
4.61700e-06	0.001578327461448331
4.61725e-06	0.001594036562222427
4.61750e-06	0.0016097456629964699
4.61775e-06	0.001625454763770513
4.61800e-06	0.0016397229227599571
4.61825e-06	0.0016527854979710847
4.61850e-06	0.0016658480731822122
4.61875e-06	0.0016789106483933842
4.61900e-06	0.0016919732236045117
4.61925e-06	0.0017050357988156837
4.61950e-06	0.001714506269012572
4.61975e-06	0.0017209713551051234
4.62000e-06	0.0017274364411976968
4.62025e-06	0.0017339015272902485
4.62050e-06	0.0017403666133828
4.62075e-06	0.0017468316994753734
4.62100e-06	0.0017481541781387022
4.62125e-06	0.0017451740235101471
4.62150e-06	0.001742193868881582
4.62175e-06	0.0017355871916599735
4.62200e-06	0.0017259463343930904
4.62225e-06	0.0017163054771261747
4.62250e-06	0.0017025864220062614
4.62275e-06	0.0016854552865177117
4.62300e-06	0.0016683241510291036
4.62325e-06	0.0016476271304250523
4.62350e-06	0.0016239466629559753
4.62375e-06	0.0016002661954869785
4.62400e-06	0.0015721380877912485
4.62425e-06	0.001540288800679678
4.62450e-06	0.0015084395135682154
4.62475e-06	0.001476590226456753
4.62500e-06	0.0014447409393451823
4.62525e-06	0.0014128916522337198
4.62550e-06	0.0013759050948879818
4.62575e-06	0.0013372512466791003
4.62600e-06	0.0012985973984703499
4.62625e-06	0.0012599435502615994
4.62650e-06	0.001221289702052718
4.62675e-06	0.0011826358538439673
4.62700e-06	-0.00010873277948941404
4.62725e-06	-0.007934750658967529
4.62750e-06	-0.012790729468830798
4.62775e-06	-0.011571175623504912
4.62800e-06	-0.009234457869344691
4.62825e-06	-0.002967279235601948
4.62850e-06	0.0018478595470443648
4.62875e-06	0.0018618435868019343
4.62900e-06	0.001101135505072372
4.62925e-06	-0.003622248765721068
4.62950e-06	-0.007362573672770728
4.62975e-06	-0.006576571895925931
4.63000e-06	-0.0051037902667073805
4.63025e-06	-0.002736164386874456
4.63050e-06	0.000944740685071146
4.63075e-06	0.0023302435489669765
4.63100e-06	0.0016457683882112224
4.63125e-06	-0.0005624850372515163
4.63150e-06	-0.002985991784766117
4.63175e-06	-0.0033955637595716967
4.63200e-06	-0.0024067515053947603
4.63225e-06	-0.0005733956138136833
4.63250e-06	0.0013740708533796391
4.63275e-06	0.0020165759817993394
4.63300e-06	0.0015736383924511515
4.63325e-06	0.00017827858171733248
4.63350e-06	-0.0013500581338116583
4.63375e-06	-0.0016152926724043728
4.63400e-06	-0.0010033038893463586
4.63425e-06	0.0001387430835684611
4.63450e-06	0.0013531236409353993
4.63475e-06	0.0017508311804783816
4.63500e-06	0.0014693199868883017
4.63525e-06	0.0005918666489233605
4.63550e-06	-0.0003682926216320384
4.63575e-06	-0.0005367714614503695
4.63600e-06	-0.00015541956874715808
4.63625e-06	0.0005581921743418636
4.63650e-06	0.0013172687428756281
4.63675e-06	0.0015649047667162467
4.63700e-06	0.0013871954007281008
4.63725e-06	0.0008362969538315938
4.63750e-06	0.0002336786328179217
4.63775e-06	0.0001269971348449363
4.63800e-06	0.0003646851140549736
4.63825e-06	0.0008103991532921567
4.63850e-06	0.001284450432023091
4.63875e-06	0.0014379794097203378
4.63900e-06	0.0013249162774903274
4.63925e-06	0.000977929439986221
4.63950e-06	0.0005983751220388441
4.63975e-06	0.0005292915960594551
4.64000e-06	0.0006759675555271605
4.64025e-06	0.0009535669565364782
4.64050e-06	0.00124996559901997
4.64075e-06	0.0013467118287034344
4.64100e-06	0.0012775394528794133
4.64125e-06	0.0010628611608141964
4.64150e-06	0.0008287499792881398
4.64175e-06	0.0007900126214637352
4.64200e-06	0.0008872432774188444
4.64225e-06	0.0010672275767702054
4.64250e-06	0.0012596635024399367
4.64275e-06	0.0013276555696040125
4.64300e-06	0.001292282055038835
4.64325e-06	0.00116627591902046
4.64350e-06	0.0010285511352291835
4.64375e-06	0.0010135948598280187
4.64400e-06	0.0010841235967349848
4.64425e-06	0.0012067353914260739
4.64450e-06	0.0013373283060376564
4.64475e-06	0.0013900922034753324
4.64500e-06	0.001378174875879676
4.64525e-06	0.0013094957829455065
4.64550e-06	0.0012334275579563945
4.64575e-06	0.0012341475651477716
4.64600e-06	0.0012882337160189266
4.64625e-06	0.0013746969780134952
4.64650e-06	0.0014658485556576094
