Time(s)	Current(A)
1.33000e-05	0.001570630534236023
1.33003e-05	0.0015912113370472165
1.33005e-05	0.0016117921398585496
1.33008e-05	0.0016323729426698825
1.33010e-05	0.001652953745481076
1.33013e-05	0.0016735345482924088
1.33015e-05	0.0016941153511037417
1.33018e-05	0.0017146961539149352
1.33020e-05	0.001735276956726268
1.33023e-05	0.0017558577595376012
1.33025e-05	0.0017660906608682402
1.33028e-05	0.0017675662541762288
1.33030e-05	0.0017690418474842172
1.33033e-05	0.0017705174407921958
1.33035e-05	0.0017719930341001842
1.33038e-05	0.0017734686274081728
1.33040e-05	0.0017749442207161514
1.33043e-05	0.0017764198140241398
1.33045e-05	0.0017778954073321284
1.33048e-05	0.001779371000640117
1.33050e-05	0.0017808465939480953
1.33053e-05	0.001782322187256084
1.33055e-05	0.0017779408580335671
1.33058e-05	0.0017686028837596473
1.33060e-05	0.0017592649094856643
1.33063e-05	0.001749926935211681
1.33065e-05	0.0017405889609377612
1.33068e-05	0.001731250986663778
1.33070e-05	0.0017219130123897947
1.33073e-05	0.0017125750381158749
1.33075e-05	0.001703133425731467
1.33078e-05	0.0016913057796889726
1.33080e-05	0.0016794781336465585
1.33083e-05	0.0016676504876040645
1.33085e-05	0.0016558228415615701
1.33088e-05	0.001643995195519156
1.33090e-05	0.0016321675494766618
1.33093e-05	0.0016203399034341677
1.33095e-05	0.0016085122573917536
1.33098e-05	0.0015979244293078565
1.33100e-05	0.001588385844665067
1.33103e-05	0.0015788472600223422
1.33105e-05	0.0015693086753795526
1.33108e-05	0.001559770090736763
1.33110e-05	0.0015500803940436954
1.33113e-05	0.0015369116833364319
1.33115e-05	0.0015237429726291682
1.33118e-05	0.001510574261921994
1.33120e-05	0.0014974055512147306
1.33123e-05	0.001484236840507467
1.33125e-05	0.0014660626499674268
1.33128e-05	0.0014436523803736069
1.33130e-05	0.001421242110779787
1.33133e-05	0.001398831841185967
1.33135e-05	0.0013764215715922987
1.33138e-05	0.0013540113019984788
1.33140e-05	0.0013316010324046588
1.33143e-05	0.0013091907628109906
1.33145e-05	0.0012808420320446184
1.33148e-05	0.0012474676510258159
1.33150e-05	0.0012140932700072395
1.33153e-05	0.001180718888988437
1.33155e-05	0.0011473445079696345
1.33158e-05	0.001113970126951058
1.33160e-05	0.0010805957459322556
1.33163e-05	0.001047221364913453
1.33165e-05	0.0010113056515273625
1.33168e-05	0.0009732392382738168
1.33170e-05	0.000935172825020271
1.33173e-05	0.0008971064117669832
1.33175e-05	0.0008590399985134374
1.33178e-05	0.0008212762871907444
1.33180e-05	0.0007837687489729474
1.33183e-05	0.0007462612107548962
1.33185e-05	0.0007087536725368449
1.33188e-05	0.000671246134319048
1.33190e-05	0.0006356644959146384
1.33193e-05	0.0006017127240034048
1.33195e-05	0.0005677609520924012
1.33198e-05	0.000535829326370528
1.33200e-05	0.0005056073267476466
1.33203e-05	0.000477569680930566
1.33205e-05	0.00045138062819790464
1.33208e-05	0.0004262767218797191
1.33210e-05	0.0004020911622839479
1.33213e-05	0.00037675950698409447
1.33215e-05	0.00035045792429097214
1.33218e-05	0.00032321267193830005
1.33220e-05	0.0002951688029869906
1.33223e-05	0.0002667772401320855
1.33225e-05	0.0002379922839197772
1.33228e-05	0.00020876737471886293
1.33230e-05	0.00017837032683590566
1.33233e-05	0.00014615923948996788
1.33235e-05	0.000112074235157344
1.33238e-05	7.636386226345785e-05
1.33240e-05	3.930780846950629e-05
1.33243e-05	1.1857199028445578e-06
1.33245e-05	-3.775997673433446e-05
1.33248e-05	-7.753227946916103e-05
1.33250e-05	-0.00011847673920416528
1.33253e-05	-0.00016088233300241107
1.33255e-05	-0.00020494006513486736
1.33258e-05	-0.0002498068794126295
1.33260e-05	-0.00029542795001458676
1.33263e-05	-0.00034168733892426194
1.33265e-05	-0.0003883685216652034
1.33268e-05	-0.0004354066635942822
1.33270e-05	-0.00048244480552336107
1.33273e-05	-0.0005294829474521212
1.33275e-05	-0.0005764091572288497
1.33278e-05	-0.0006232406401338129
1.33280e-05	-0.0006700721230384587
1.33283e-05	-0.0007169036059434219
1.33285e-05	-0.0007619927651736954
1.33288e-05	-0.0008056074162498955
1.33290e-05	-0.0008492220673263912
1.33293e-05	-0.0008905333454713101
1.33295e-05	-0.0009298953060360938
1.33298e-05	-0.0009692572666011442
1.33300e-05	-0.0010057616541866588
1.33303e-05	-0.0010398477111716199
1.33305e-05	-0.0010705308016299344
1.33308e-05	-0.0010983340013061105
1.33310e-05	-0.0011261372009822863
1.33313e-05	-0.0011509675655025696
1.33315e-05	-0.0011732820543903565
1.33318e-05	-0.0011955965432781433
1.33320e-05	-0.001214652227431356
1.33323e-05	-0.0012309500232411614
1.33325e-05	-0.0012472478190509667
1.33328e-05	-0.0012603627057715002
1.33330e-05	-0.0012707839337456964
1.33333e-05	-0.0012812051617198928
1.33335e-05	-0.0012871736052200656
1.33338e-05	-0.0012893737092834461
1.33340e-05	-0.0012915738133468266
1.33343e-05	-0.0012937739174101923
1.33345e-05	-0.0012959740214735728
1.33348e-05	-0.0012981741255369533
1.33350e-05	-0.0013003742296003188
1.33353e-05	-0.0013025743336636995
1.33355e-05	-0.0012999934298090234
1.33358e-05	-0.0012933664148544828
1.33360e-05	-0.0012867393998998971
1.33363e-05	-0.0012801123849453114
1.33365e-05	-0.0012734853699907706
1.33368e-05	-0.0012668583550361852
1.33370e-05	-0.0012602313400815995
1.33373e-05	-0.0012536043251270587
1.33375e-05	-0.0012451869686750084
1.33378e-05	-0.0012352544671468827
1.33380e-05	-0.0012253219656188244
1.33383e-05	-0.001215389464090699
1.33385e-05	-0.0012054569625625734
1.33388e-05	-0.001195524461034448
1.33390e-05	-0.0011856392576608595
1.33393e-05	-0.0011768429875838142
1.33395e-05	-0.0011680467175067691
1.33398e-05	-0.0011592504474297837
1.33400e-05	-0.0011504541773527384
1.33403e-05	-0.0011416579072756933
1.33405e-05	-0.0011328616371987076
1.33408e-05	-0.001123413121793025
1.33410e-05	-0.0011134126187919114
1.33413e-05	-0.0011034121157908654
1.33415e-05	-0.0010894891467725517
1.33418e-05	-0.0010722466406261207
1.33420e-05	-0.0010550041344798064
1.33423e-05	-0.001035021408811773
1.33425e-05	-0.0010127196674017261
1.33428e-05	-0.0009878830881570814
1.33430e-05	-0.0009609013052904395
1.33433e-05	-0.0009304538069505707
1.33435e-05	-0.0008970733141275985
1.33438e-05	-0.0008606463341650015
1.33440e-05	-0.0008216411477562433
1.33443e-05	-0.0007801952469340452
1.33445e-05	-0.0007366837980403491
1.33448e-05	-0.0006908201936642957
1.33450e-05	-0.000642965987605492
1.33453e-05	-0.0005925225283626523
1.33455e-05	-0.0005398878144241925
1.33458e-05	-0.0004852724732082885
1.33460e-05	-0.0004289809502844315
1.33463e-05	-0.00037143416204526894
1.33465e-05	-0.0003128250574467937
1.33468e-05	-0.0002533620086136354
1.33470e-05	-0.00019317627675934562
1.33473e-05	-0.00013233390360137932
1.33475e-05	-7.09358225859999e-05
1.33478e-05	-9.489726778154975e-06
1.33480e-05	5.176022904372884e-05
1.33483e-05	0.00011237150567732705
1.33485e-05	0.00017198439555039027
1.33488e-05	0.0002303199894116714
1.33490e-05	0.00028720933888212513
1.33493e-05	0.00034245812506940483
1.33495e-05	0.00039574598041784654
1.33498e-05	0.0004466868734963143
1.33500e-05	0.0004948882542633252
1.33503e-05	0.000539957646647435
1.33505e-05	0.0005815192765405428
1.33508e-05	0.0006193233436815944
1.33510e-05	0.0006533413680242647
1.33513e-05	0.000683627171638544
1.33515e-05	0.0007101482963781535
1.33518e-05	0.0007328080963523061
1.33520e-05	0.0007515022901133379
1.33523e-05	0.0007661266325868553
1.33525e-05	0.0007765873674482044
1.33528e-05	0.0007828696854420873
1.33530e-05	0.0007850973424119135
1.33533e-05	0.0007834456633850556
1.33535e-05	0.0007770497282271942
1.33538e-05	0.0007681147940692858
1.33540e-05	0.000755317363224537
1.33543e-05	0.0007392511465937302
1.33545e-05	0.0007195228494833896
1.33548e-05	0.0006966953764799723
1.33550e-05	0.000670645528022343
1.33553e-05	0.0006418686208931297
1.33555e-05	0.0006103480893425873
1.33557e-05	0.000576505660522609
1.33560e-05	0.0005403315844385355
1.33563e-05	0.00050218426253632
1.33565e-05	0.00046213748712244134
1.33568e-05	0.00042048322641004786
1.33570e-05	0.0003773101569053055
1.33573e-05	0.00033285173727748505
1.33575e-05	0.00028839331764996586
1.33578e-05	0.00024329170029430838
1.33580e-05	0.00019764575222172342
1.33583e-05	0.00015199980414944776
1.33585e-05	0.0001065853590753402
1.33588e-05	6.1738350634462e-05
1.33590e-05	1.7757335837051395e-05
1.33593e-05	-2.5029072324140766e-05
1.33595e-05	-6.630557646504105e-05
1.33598e-05	-0.00010576681712247806
1.33600e-05	-0.00014310864562543527
1.33603e-05	-0.00017802694104124148
1.33605e-05	-0.00021021087434374786
1.33608e-05	-0.00023931999006178369
1.33610e-05	-0.00026501424905458636
1.33613e-05	-0.0002870627882108006
1.33615e-05	-0.00030537153175668445
1.33618e-05	-0.00031990183184248686
1.33620e-05	-0.0003306195812019077
1.33623e-05	-0.0003374906992495657
1.33625e-05	-0.00034047692809183546
1.33628e-05	-0.00033952148360938254
1.33630e-05	-0.0003345678052053808
1.33633e-05	-0.00032562776305435537
1.33635e-05	-0.00031279890564969097
1.33638e-05	-0.0002962134938892384
1.33640e-05	-0.00027600664109451745
1.33642e-05	-0.00025231343936492085
1.33645e-05	-0.00022526639680892432
1.33648e-05	-0.00019498639808685422
1.33650e-05	-0.00016159446300352775
1.33653e-05	-0.00012525446836363628
1.33655e-05	-8.618395208849584e-05
1.33658e-05	-4.462218449869004e-05
1.33660e-05	-8.102013964978274e-07
1.33663e-05	4.501097596861485e-05
1.33665e-05	9.260196998641244e-05
1.33668e-05	0.000141730703251454
1.33670e-05	0.00019241394212184126
1.33673e-05	0.0002438566068205389
1.33675e-05	0.00029598438720086306
1.33678e-05	0.00034869197297309645
1.33680e-05	0.00040139955874532977
1.33683e-05	0.0004540405082697665
1.33685e-05	0.0005051473085284584
1.33688e-05	0.0005562541087871501
1.33690e-05	0.0006073609090454957
1.33693e-05	0.0006563972259907839
1.33695e-05	0.000703681317115095
1.33698e-05	0.0007485372572772415
1.33700e-05	0.0007913382816694887
1.33703e-05	0.000830975933114191
1.33705e-05	0.0008679364590177914
1.33708e-05	0.0009017016279813201
1.33710e-05	0.0009327626037247778
1.33713e-05	0.0009613030232988046
1.33715e-05	0.000987710325656061
1.33718e-05	0.001011413790481615
1.33720e-05	0.0010328290292158046
1.33723e-05	0.0010512239008099219
1.33725e-05	0.0010670626710057637
1.33727e-05	0.0010794176398246915
1.33730e-05	0.001088824308269166
1.33733e-05	0.0010982309767136405
1.33735e-05	0.0011041725707322597
1.33738e-05	0.0011071817127759427
1.33740e-05	0.001110190854819646
1.33743e-05	0.0011097080405403977
1.33745e-05	0.001106270024451113
1.33748e-05	0.001102832008361805
1.33750e-05	0.0010965786862960052
1.33753e-05	0.0010879428036973857
1.33755e-05	0.0010793069210987079
1.33758e-05	0.0010675505736001476
1.33760e-05	0.0010531534131396937
1.33763e-05	0.0010387562526791422
1.33765e-05	0.0010243590922185905
1.33768e-05	0.0010099619317581366
1.33770e-05	0.000995564771297585
1.33773e-05	0.0009790362326557258
1.33775e-05	0.0009607039335779667
1.33778e-05	0.0009423716345000833
1.33780e-05	0.0009240393354222
1.33783e-05	0.0009057070363444409
1.33785e-05	0.0008873747372665575
1.33788e-05	0.0008700649538807536
1.33790e-05	0.000853620513570665
1.33793e-05	0.0008371760732604649
1.33795e-05	0.0008207316329502649
1.33798e-05	0.0008042871926401763
1.33800e-05	0.0007878427523299762
1.33803e-05	0.0007713983120197761
1.33805e-05	0.0007551705949619051
1.33808e-05	0.000743932441869342
1.33810e-05	0.0007326942887767788
1.33812e-05	0.0007214561356842919
1.33815e-05	0.0007102179825917288
1.33818e-05	0.0006989798294991656
1.33820e-05	0.0006877416764066023
1.33823e-05	0.0006765035233141154
1.33825e-05	0.0006671330472915704
1.33828e-05	0.0006593431645379051
1.33830e-05	0.0006515532817842927
1.33833e-05	0.0006437633990306273
1.33835e-05	0.0006359735162769621
1.33838e-05	0.0006281836335233497
1.33840e-05	0.0006203937507696844
1.33843e-05	0.0006126038680160192
1.33845e-05	0.0006048139852624067
1.33848e-05	0.0005970241025087414
1.33850e-05	0.0005892342197550762
1.33853e-05	0.0005814443370014637
1.33855e-05	0.0005747520905497874
1.33858e-05	0.000568988760867847
1.33860e-05	0.0005632254311859457
1.33863e-05	0.0005574621015040053
1.33865e-05	0.0005516987718220649
1.33868e-05	0.0005459354421401636
1.33870e-05	0.0005401721124582232
1.33873e-05	0.0005344087827762828
1.33875e-05	0.0005286454530943816
1.33878e-05	0.0005228821234124412
1.33880e-05	0.0005171187937305008
1.33883e-05	0.0005113554640485995
1.33885e-05	0.0005063822925005685
1.33888e-05	0.0005020778225434759
1.33890e-05	0.0004977733525864125
1.33893e-05	0.0004934688826293199
1.33895e-05	0.0004891644126722274
1.33897e-05	0.00048485994271516404
1.33900e-05	0.0004806351808947045
1.33903e-05	0.00047824551910605065
1.33905e-05	0.0004758558573173968
1.33908e-05	0.00047346619552875906
1.33910e-05	0.00047107653374010524
1.33913e-05	0.00046868687195145137
1.33915e-05	0.00046629721016281365
1.33918e-05	0.0004653696138817437
1.33920e-05	0.00046567934654674246
1.33923e-05	0.00046598907921173915
1.33925e-05	0.0004672938781882378
1.33928e-05	0.0004694407901508214
1.33930e-05	0.00047158770211339036
1.33933e-05	0.00047484307722479445
1.33935e-05	0.0004790365317399834
1.33938e-05	0.00048322998625514386
1.33940e-05	0.0004890459303482585
1.33943e-05	0.0004962349684026552
1.33945e-05	0.0005034240064570032
1.33948e-05	0.0005106130445113999
1.33950e-05	0.0005178020825657966
1.33953e-05	0.0005249911206201446
1.33955e-05	0.0005321801586745413
1.33958e-05	0.0005394867768264606
1.33960e-05	0.0005495004114758086
1.33963e-05	0.0005595140461252244
1.33965e-05	0.0005695276807746402
1.33968e-05	0.0005795413154239882
1.33970e-05	0.000589554950073404
1.33973e-05	0.0005995685847228198
1.33975e-05	0.0006095822193721678
1.33978e-05	0.0006198072322113199
1.33980e-05	0.000630211131941249
1.33983e-05	0.0006406150316711078
1.33985e-05	0.000651018931401037
1.33988e-05	0.0006614228311309662
1.33990e-05	0.000671758777842411
1.33993e-05	0.0006805302595967791
1.33995e-05	0.0006893017413512068
1.33998e-05	0.0006980732231056343
1.34000e-05	0.0007068447048600025
1.34003e-05	0.0007156161866144302
1.34005e-05	0.0007239876795365171
1.34008e-05	0.000732020666585933
1.34010e-05	0.0007400536536354034
1.34013e-05	0.0007509667080717576
1.34015e-05	0.0007643171298672886
1.34018e-05	0.0007801837886522332
1.34020e-05	0.0007981799093845108
1.34023e-05	0.000818278871240372
1.34025e-05	0.0008401574429555779
1.34028e-05	0.0008645481531691296
1.34030e-05	0.0008910648568248933
1.34033e-05	0.000921021471221844
1.34035e-05	0.0009538892418638862
1.34038e-05	0.000989780012136937
1.34040e-05	0.0010282291116571584
1.34043e-05	0.0010696565792931085
1.34045e-05	0.0011136046050459114
1.34048e-05	0.001157552630799012
1.34050e-05	0.0012052088870880815
1.34053e-05	0.0012560033755276948
1.34055e-05	0.001306797863967652
1.34058e-05	0.0013612202066637577
1.34060e-05	0.001418712760004486
1.34063e-05	0.0014762053133456038
1.34065e-05	0.0015336978666867214
1.34068e-05	0.0015911904200274496
1.34070e-05	0.0016487993806786306
1.34073e-05	0.0017090883570485642
1.34075e-05	0.001769377333418498
1.34078e-05	0.0018296663097880231
1.34080e-05	0.0018899552861579567
1.34083e-05	0.0019502442625278903
1.34085e-05	0.002003626599528048
1.34088e-05	0.002051163928372769
1.34090e-05	0.002098701257217489
1.34093e-05	0.002146238586061888
1.34095e-05	0.0021937759149066086
1.34098e-05	0.002241313243751329
1.34100e-05	0.0022888505725957276
1.34103e-05	0.0023363879014404484
1.34105e-05	0.0023839252302851693
1.34108e-05	0.002431462559129568
1.34110e-05	0.0024789998879742882
1.34113e-05	0.0025111707303878245
1.34115e-05	0.0025303370949762154
1.34118e-05	0.002549503459564736
1.34120e-05	0.002568669824153257
1.34123e-05	0.002587836188741648
1.34125e-05	0.0026070025533301683
1.34128e-05	0.0026261689179186893
1.34130e-05	0.00264533528250708
1.34133e-05	0.0026645016470956007
1.34135e-05	0.0026836680116841217
1.34138e-05	0.0027028343762725126
1.34140e-05	0.0027107612432375554
1.34143e-05	0.002709176254758002
1.34145e-05	0.0027075912662784586
1.34148e-05	0.002706006277798905
1.34150e-05	0.0027044212893193513
1.34153e-05	0.002702836300839808
1.34155e-05	0.0027012513123602544
1.34158e-05	0.0026996663238807008
1.34160e-05	0.0026980813354011467
1.34163e-05	0.0026960837576316433
1.34165e-05	0.0026845872421771967
1.34168e-05	0.00267309072672275
1.34170e-05	0.002661594211268381
1.34173e-05	0.0026500976958139344
1.34175e-05	0.0026386011803594877
1.34178e-05	0.0026271046649051187
1.34180e-05	0.002615608149450672
1.34183e-05	0.0026041116339962254
1.34185e-05	0.0025926151185418564
1.34188e-05	0.0025810954414892465
1.34190e-05	0.0025695561630468774
1.34193e-05	0.002558016884604587
1.34195e-05	0.002546477606162218
1.34198e-05	0.002534938327719849
1.34200e-05	0.0025233990492775586
1.34203e-05	0.00251185977083519
1.34205e-05	0.0025003204923928213
1.34208e-05	0.0024887628730919987
1.34210e-05	0.002476782996896316
1.34213e-05	0.0024648031207006324
1.34215e-05	0.0024528232445050306
1.34218e-05	0.0024408433683093473
1.34220e-05	0.002428863492113664
1.34223e-05	0.002416883615918062
1.34225e-05	0.0024049037397223787
1.34228e-05	0.002392923863526696
1.34230e-05	0.0023768593400133086
1.34233e-05	0.00235733802722518
1.34235e-05	0.002337816714437051
1.34238e-05	0.0023182954016490545
1.34240e-05	0.0022987740888609255
1.34243e-05	0.0022792527760727966
1.34245e-05	0.002259731463284668
1.34248e-05	0.0022402101504966714
1.34250e-05	0.0022206888377085425
1.34253e-05	0.0022011675249204135
1.34255e-05	0.0021784357948165757
1.34258e-05	0.002152987126068435
1.34260e-05	0.002127538457320295
1.34263e-05	0.002102089788572327
1.34265e-05	0.0020766411198241868
1.34268e-05	0.0020511924510760466
1.34270e-05	0.0020257437823280786
1.34273e-05	0.002000295113579938
1.34275e-05	0.001974846444831798
1.34278e-05	0.0019493977760838299
1.34280e-05	0.0019247927911546228
1.34283e-05	0.0019009018059786555
1.34285e-05	0.0018770108208028503
1.34288e-05	0.001853119835626883
1.34290e-05	0.0018292288504509159
1.34293e-05	0.0018053378652751104
1.34295e-05	0.0017814468800991432
1.34298e-05	0.001757555894923176
1.34300e-05	0.0017388917467752501
1.34303e-05	0.0017246510097021267
1.34305e-05	0.0017104102726290032
1.34308e-05	0.0016961695355559763
1.34310e-05	0.0016819287984828528
1.34313e-05	0.0016676880614097294
1.34315e-05	0.0016534473243367024
1.34318e-05	0.001639206587263579
1.34320e-05	0.0016337520424198819
1.34323e-05	0.0016357331493497445
1.34325e-05	0.0016377142562796203
1.34328e-05	0.0016396953632094964
1.34330e-05	0.0016416764701393724
1.34333e-05	0.0016436575770692348
1.34335e-05	0.0016456386839991109
1.34338e-05	0.001647619790928987
1.34340e-05	0.0016496008978588495
1.34343e-05	0.0016522086673906133
1.34345e-05	0.0016692439297557279
1.34348e-05	0.001686279192120727
1.34350e-05	0.0017033144544858416
1.34353e-05	0.0017203497168509561
1.34355e-05	0.001737384979215955
1.34358e-05	0.0017544202415810696
1.34360e-05	0.0017714555039461842
1.34363e-05	0.0017884907663111833
1.34365e-05	0.0018055260286762979
1.34368e-05	0.0018260526150860215
1.34370e-05	0.0018495338682212794
1.34373e-05	0.0018730151213566966
1.34375e-05	0.0018964963744921139
1.34378e-05	0.001919977627627372
1.34380e-05	0.001943458880762789
1.34383e-05	0.0019669401338982062
1.34385e-05	0.001989391747023997
1.34388e-05	0.0020109719878462612
1.34390e-05	0.0020325522286685255
1.34393e-05	0.002054132469490643
1.34395e-05	0.0020757127103129074
1.34398e-05	0.0020972929511351717
1.34400e-05	0.0021188731919572893
1.34403e-05	0.0021371306585628628
1.34405e-05	0.002152576100191393
1.34408e-05	0.0021680215418198195
1.34410e-05	0.002177221219536649
1.34413e-05	0.0021811351802666938
1.34415e-05	0.0021850491409967387
1.34418e-05	0.0021812632352640375
1.34420e-05	0.002170961022553809
1.34423e-05	0.002160658809843581
1.34425e-05	0.0021428173915156545
1.34428e-05	0.0021185956316052694
1.34430e-05	0.0020943738716948847
1.34433e-05	0.002062737395202141
1.34435e-05	0.0020248259307419467
1.34438e-05	0.0019814144805964944
1.34440e-05	0.0019333484568596277
1.34443e-05	0.0018793992490429704
1.34445e-05	0.0018204711713129306
1.34448e-05	0.0017615430935832902
1.34450e-05	0.0016958731663943322
1.34453e-05	0.0016244976908188055
1.34455e-05	0.0015531222152437628
1.34458e-05	0.001476414224628506
1.34460e-05	0.0013951933888707536
