Time(s)	Current(A)
1.20000e-05	0.0020685647081687577
1.20003e-05	0.002113623142066551
1.20005e-05	0.002159266815187631
1.20008e-05	0.002205558785835189
1.20010e-05	0.0022519854675500267
1.20013e-05	0.002298561375167834
1.20015e-05	0.0023448171023608927
1.20018e-05	0.0023907181503580693
1.20020e-05	0.0024357881763324707
1.20023e-05	0.0024799376393971405
1.20025e-05	0.0025227189483662785
1.20028e-05	0.002563984687494272
1.20030e-05	0.0026033591141718286
1.20033e-05	0.0026406384434345025
1.20035e-05	0.0026749903430642375
1.20038e-05	0.002706099388634122
1.20040e-05	0.0027372084342042174
1.20043e-05	0.002765008009776449
1.20045e-05	0.0027891415268727253
1.20048e-05	0.0028132750439691656
1.20050e-05	0.0028338911974818827
1.20052e-05	0.0028506109988331975
1.20055e-05	0.0028673308001846256
1.20058e-05	0.0028804844864278086
1.20060e-05	0.0028896878161100963
1.20063e-05	0.0028988911457924465
1.20065e-05	0.002905460236185235
1.20068e-05	0.002909111253508384
1.20070e-05	0.0029112352140134978
1.20073e-05	0.00291066158323565
1.20075e-05	0.0029079794939174232
1.20078e-05	0.002903252643767032
1.20080e-05	0.0028966363720201033
1.20083e-05	0.0028883269705544034
1.20085e-05	0.0028784709196629996
1.20088e-05	0.002867167281361274
1.20090e-05	0.002854505695447095
1.20093e-05	0.0028405758017183685
1.20095e-05	0.0028254693387921226
1.20098e-05	0.0028093040095829055
1.20100e-05	0.0027922549647914252
1.20103e-05	0.0027745232581571967
1.20105e-05	0.0027562784045618675
1.20108e-05	0.002737660388046587
1.20110e-05	0.0027188030981334876
1.20113e-05	0.0026998405110046897
1.20115e-05	0.0026809080745835052
1.20118e-05	0.00266215726265756
1.20120e-05	0.002643775498280835
1.20123e-05	0.0026259666715550117
1.20125e-05	0.0026089147819426165
1.20128e-05	0.002592784962537927
1.20130e-05	0.0025777390187360955
1.20133e-05	0.0025639387797365422
1.20135e-05	0.002551542074223964
1.20137e-05	0.002540653082470809
1.20140e-05	0.002531256101171639
1.20143e-05	0.002523955448080042
1.20145e-05	0.002518135225260223
1.20148e-05	0.002512315002440365
1.20150e-05	0.0025080209947737518
1.20153e-05	0.0025054176487548994
1.20155e-05	0.002068983453900869
1.20158e-05	-0.0019163205518084115
1.20160e-05	-0.006322576340821498
1.20163e-05	-0.007283266578349122
1.20165e-05	-0.005754048908442941
1.20168e-05	-0.0025778198105314764
1.20170e-05	0.0007966012968313369
1.20173e-05	0.002250200438947094
1.20175e-05	0.0017362325530184985
1.20178e-05	-0.0004952869479324183
1.20180e-05	-0.0029284602948309486
1.20183e-05	-0.0036782196601121836
1.20185e-05	-0.002760902561209746
1.20188e-05	-0.0007082674063906545
1.20190e-05	0.001401011747877062
1.20193e-05	0.0024102941578786454
1.20195e-05	0.0021406021784653698
1.20198e-05	0.00075832899193792
1.20200e-05	-0.0010024473878679121
1.20203e-05	-0.0016327373118557947
1.20205e-05	-0.0009562524703847881
1.20208e-05	0.0004870681919630865
1.20210e-05	0.0019742429056460366
1.20213e-05	0.0030864005917290425
1.20215e-05	0.0032415990949902977
1.20218e-05	0.0024500687819897717
1.20220e-05	0.001464273602557287
1.20222e-05	0.0007161824703152923
1.20225e-05	0.0008240676085068788
1.20228e-05	0.0017139472844273419
1.20230e-05	0.002651282485510903
1.20233e-05	0.003352908649891978
1.20235e-05	0.003453978793759149
1.20238e-05	0.002960865108714938
1.20240e-05	0.0023447120208492716
1.20243e-05	0.0018758834732472975
1.20245e-05	0.0019416100606679788
1.20248e-05	0.0024955946212776147
1.20250e-05	0.0030777948571487114
1.20253e-05	0.003510936746976284
1.20255e-05	0.003566598270007866
1.20258e-05	0.0032488979346875493
1.20260e-05	0.00285307217492081
1.20263e-05	0.002548566881999233
1.20265e-05	0.002578013907621012
1.20268e-05	0.0029124731756088288
1.20270e-05	0.0032638491364787555
1.20273e-05	0.00352119008918181
1.20275e-05	0.003541516029462651
1.20278e-05	0.0033275161650247248
1.20280e-05	0.0030642266744750593
1.20283e-05	0.0028578749688106604
1.20285e-05	0.0028605202500689617
1.20288e-05	0.0030541025455304016
1.20290e-05	0.0032582367367254674
1.20293e-05	0.0034035111554774245
1.20295e-05	0.003400458557819602
1.20298e-05	0.0032508627883480763
1.20300e-05	0.0030707243659235887
1.20303e-05	0.0029266689177107007
1.20305e-05	0.002914024100244958
1.20307e-05	0.0030215507557191552
1.20310e-05	0.003136335357975134
1.20313e-05	0.00321498511947584
1.20315e-05	0.0032015483974625904
1.20318e-05	0.0030972364338099564
1.20320e-05	0.0029748008165960643
1.20323e-05	0.00287606138387619
1.20325e-05	0.002860810374636485
1.20328e-05	0.0029220852291757297
1.20330e-05	0.002989238092267491
1.20333e-05	0.003035172837389766
1.20335e-05	0.003024929795287588
1.20338e-05	0.002959127088348242
1.20340e-05	0.002882584823731981
1.20343e-05	0.0028205674187192897
1.20345e-05	0.0028101640593350755
1.20348e-05	0.0028470307637927326
1.20350e-05	0.0028869505668877847
1.20353e-05	0.002912989881325173
1.20355e-05	0.0029032915292652134
1.20358e-05	0.0028582850400585857
1.20360e-05	0.0028060862900311213
1.20363e-05	0.002762560485142017
1.20365e-05	0.0027509771145102597
1.20368e-05	0.0027686511505767056
1.20370e-05	0.0027879230831472515
1.20373e-05	0.0027982249898266314
1.20375e-05	0.0027859059857986476
1.20378e-05	0.002751276341298611
1.20380e-05	0.0027119878651053367
1.20383e-05	0.0026780176597122705
1.20385e-05	0.002663979345622927
1.20388e-05	0.0026682286162190024
1.20390e-05	0.00267347731252646
1.20392e-05	0.0026731450267656193
1.20395e-05	0.0026587209489309154
1.20398e-05	0.0026304396124357883
1.20400e-05	0.002599397763617514
1.20403e-05	0.0025718839898440137
1.20405e-05	0.0025570907201619146
1.20408e-05	0.0025540257155193245
1.20410e-05	0.002551898058794792
1.20413e-05	0.002546625123819723
1.20415e-05	0.002532914842492394
1.20418e-05	0.0025109541426450816
1.20420e-05	0.00248773352865289
1.20423e-05	0.002467230992886216
1.20425e-05	0.0024552431500497406
1.20428e-05	0.0024511868478874514
1.20430e-05	0.0024483408408600108
1.20433e-05	0.0024441873818655422
1.20435e-05	0.0024354503714100776
1.20438e-05	0.0024224828631259974
1.20440e-05	0.002410385192594576
1.20443e-05	0.002402434113572246
1.20445e-05	0.0024024803141688782
1.20448e-05	0.0024100260242075357
1.20450e-05	0.0024207142136056983
1.20453e-05	0.0024328198578656233
1.20455e-05	0.0024441437764919608
1.20458e-05	0.002454759891862618
1.20460e-05	0.002467715760719752
1.20463e-05	0.0024849165254395007
1.20465e-05	0.002508626527932622
1.20468e-05	0.0025383860708688903
1.20470e-05	0.0025713182796162394
1.20473e-05	0.002606195023033511
1.20475e-05	0.0026414919295569246
1.20477e-05	0.0026771072288612418
1.20480e-05	0.002714803111287422
1.20483e-05	0.0027556251590052346
1.20485e-05	0.002802750787859267
1.20488e-05	0.0028500907292342247
1.20490e-05	0.0029012170061879397
1.20493e-05	0.0029535042556404797
1.20495e-05	0.0030057841376912465
1.20498e-05	0.003057846036371001
1.20500e-05	0.003110646261159629
1.20503e-05	0.003164692264778429
1.20505e-05	0.003221337571483548
1.20508e-05	0.0032780712980073645
1.20510e-05	0.003335566702605392
1.20513e-05	0.0033917539043385476
1.20515e-05	0.0034478949604589432
1.20518e-05	0.0035010245244368014
1.20520e-05	0.003554049957299143
1.20523e-05	0.003605395512487447
1.20525e-05	0.003655250994722818
1.20528e-05	0.0037050569618600356
1.20530e-05	0.0037520214613152585
1.20533e-05	0.0037943779534088504
1.20535e-05	0.0038365785075711143
1.20538e-05	0.003873704883701897
1.20540e-05	0.00390884753725777
1.20543e-05	0.003944005531602625
1.20545e-05	0.003979166218423371
1.20548e-05	0.0040148112105227885
1.20550e-05	0.004050013398991124
1.20553e-05	0.0040836596874133475
1.20555e-05	0.004117252725510144
1.20558e-05	0.004148837201983448
1.20560e-05	0.004179922383145939
1.20562e-05	0.004212354847323833
1.20565e-05	0.004244834411672689
1.20568e-05	0.004277313976021546
1.20570e-05	0.0043107277934593125
1.20573e-05	0.004343538977396553
1.20575e-05	0.004376328206501468
1.20578e-05	0.004409117435606385
1.20580e-05	0.004441611250493561
1.20583e-05	0.004474094850573574
1.20585e-05	0.004507776386062309
1.20588e-05	0.004541499343658263
1.20590e-05	0.004575520491075326
1.20593e-05	0.00460955194927435
1.20595e-05	0.004642690113287731
1.20598e-05	0.004675797389051879
1.20600e-05	0.004708904664816026
1.20603e-05	0.004741757185200907
1.20605e-05	0.0047746008966764375
1.20608e-05	0.004807444608151969
1.20610e-05	0.004839207634706647
1.20613e-05	0.004870933293431352
1.20615e-05	0.004902658952156058
1.20618e-05	0.004931891668961754
1.20620e-05	0.0049610381850364905
1.20623e-05	0.004990184701111228
1.20625e-05	0.005017373666651027
1.20628e-05	0.005044494944177048
1.20630e-05	0.0050700023958876305
1.20633e-05	0.005094106001828595
1.20635e-05	0.005116611057891448
1.20638e-05	0.005137141433604553
1.20640e-05	0.005154873290630548
1.20643e-05	0.005168928798915489
1.20645e-05	0.005179039122623657
1.20647e-05	0.005185264846972531
1.20650e-05	0.005185821464733145
1.20653e-05	0.005186186543182395
1.20655e-05	0.005181136044386887
1.20658e-05	0.005170281065148872
1.20660e-05	0.005159231854123597
1.20663e-05	0.005139762887801666
1.20665e-05	0.00512000278390554
1.20668e-05	0.00509406756265477
1.20670e-05	0.005064088035987086
1.20673e-05	0.005030371665318293
1.20675e-05	0.004993148627394884
1.20678e-05	0.0049525841448036295
1.20680e-05	0.004908667911325902
1.20683e-05	0.004861367875391574
1.20685e-05	0.004810891342861026
1.20688e-05	0.004757575441328204
1.20690e-05	0.0047017484476785535
1.20693e-05	0.004643748989806911
1.20695e-05	0.004583913368543787
1.20698e-05	0.004522537732629803
1.20700e-05	0.0044598070217865765
1.20703e-05	0.004395894276494133
1.20705e-05	0.004331120789377327
1.20708e-05	0.0042658908559257925
1.20710e-05	0.004200601111854693
1.20713e-05	0.004135656386777654
1.20715e-05	0.004071459555525861
1.20718e-05	0.0040083877595362225
1.20720e-05	0.003946749288353758
1.20723e-05	0.003886844230172707
1.20725e-05	0.0038290660912137864
1.20728e-05	0.0037738593252643203
1.20730e-05	0.0037216655348595268
1.20732e-05	0.0036729297676828454
1.20735e-05	0.0036280958456307282
1.20738e-05	0.0035872267611353347
1.20740e-05	0.003549360069906234
1.20743e-05	0.0035132023861338575
1.20745e-05	0.003478379543090012
1.20748e-05	0.0034451449920051736
1.20750e-05	0.003413775925232034
1.20753e-05	0.0033845525697027254
1.20755e-05	0.0033577550284635094
1.20758e-05	0.003333423944726507
1.20760e-05	0.003310957494090366
1.20763e-05	0.003289547608194302
1.20765e-05	0.0032689611468109
1.20768e-05	0.003249358426061516
1.20770e-05	0.0032309146973854654
1.20773e-05	0.003214541192230467
1.20775e-05	0.0031982379249005355
1.20778e-05	0.003184157915864974
1.20780e-05	0.003171268099477882
1.20783e-05	0.003159285130533924
1.20785e-05	0.0031473321873653434
1.20788e-05	0.0031365807803881056
1.20790e-05	0.003125870920025993
1.20793e-05	0.003117262754032519
1.20795e-05	0.0031087272602464406
1.20798e-05	0.0031001917664603045
1.20800e-05	0.003093497772981522
1.20803e-05	0.0030868674547422353
1.20805e-05	0.0030811713145755502
1.20808e-05	0.003075507476338026
1.20810e-05	0.0030698436381005408
1.20813e-05	0.0030657459153068853
1.20815e-05	0.0030617023455185486
1.20817e-05	0.003057658775730239
1.20820e-05	0.003055070034694135
1.20823e-05	0.0030525315986016945
1.20825e-05	0.003049993162509271
1.20828e-05	0.0030474547264168306
1.20830e-05	0.0030456154047986497
1.20833e-05	0.003044160785472769
1.20835e-05	0.0030431239455733826
1.20838e-05	0.003042945054010965
1.20840e-05	0.0030450552851755564
1.20843e-05	0.0030510580145636647
1.20845e-05	0.0030614690159666506
1.20848e-05	0.003076111848432569
1.20850e-05	0.0030966206902744886
1.20853e-05	0.0031173274835678455
1.20855e-05	0.003143358259194164
1.20858e-05	0.0031751946240312426
1.20860e-05	0.003207225368509349
1.20863e-05	0.0032511561748355174
1.20865e-05	0.003295498460478238
1.20868e-05	0.003339840746121259
1.20870e-05	0.0033951967759435907
1.20873e-05	0.0034509336380662255
1.20875e-05	0.003515656553586927
1.20878e-05	0.0035806901880906096
1.20880e-05	0.003645723822593851
1.20883e-05	0.0037198637616354777
1.20885e-05	0.0037943185776937558
1.20888e-05	0.003875095017952724
1.20890e-05	0.003956090046791239
1.20893e-05	0.004041605183215407
1.20895e-05	0.00412727661553113
1.20898e-05	0.004215978106524695
1.20900e-05	0.004304784370627154
1.20902e-05	0.004395979754078207
1.20905e-05	0.004487257748293696
1.20908e-05	0.004579342542892273
1.20910e-05	0.004671455234964637
1.20913e-05	0.004762332183410425
1.20915e-05	0.004853166402419109
1.20918e-05	0.004940917451205133
1.20920e-05	0.005028561890395165
1.20923e-05	0.005111807298319957
1.20925e-05	0.005194900596919081
1.20928e-05	0.0052716902752303774
1.20930e-05	0.0053482619875007565
1.20933e-05	0.005416336752696308
1.20935e-05	0.005484117711184432
1.20938e-05	0.005539107564129828
1.20940e-05	0.005593655127325056
1.20943e-05	0.005648202690519914
1.20945e-05	0.005687378812256086
1.20948e-05	0.0057260234216080395
1.20950e-05	0.00576466803095973
1.20953e-05	0.005785434839732265
1.20955e-05	0.005805583471449782
1.20958e-05	0.005825732103167162
1.20960e-05	0.005836801138636171
1.20963e-05	0.0058374897851570596
1.20965e-05	0.005838178431677944
1.20968e-05	0.005838867078198832
1.20970e-05	0.005828428470151974
1.20973e-05	0.005812831367131318
1.20975e-05	0.005792384579870326
1.20978e-05	0.005767232520653648
1.20980e-05	0.005737673540196534
1.20983e-05	0.005704103069617844
1.20985e-05	0.005666844098542111
1.20987e-05	0.005626152637943772
1.20990e-05	0.005582279772636823
1.20993e-05	0.005535477844348904
1.20995e-05	0.005486000141693755
1.20998e-05	0.005434129690868637
1.21000e-05	0.0053802473162953045
1.21003e-05	0.005324795251157494
1.21005e-05	0.005268169575854514
1.21008e-05	0.005210723746592265
1.21010e-05	0.005152809353206484
1.21013e-05	0.005094778420067327
1.21015e-05	0.00503698343720505
1.21018e-05	0.0049797944640304044
1.21020e-05	0.004923645180626444
1.21023e-05	0.004869005653393363
1.21025e-05	0.004816316974998844
1.21028e-05	0.004765994439978384
1.21030e-05	0.004718452486876989
1.21033e-05	0.004674105554240719
1.21035e-05	0.004633365830126339
1.21038e-05	0.0045964433308411734
1.21040e-05	0.004562975761816379
1.21043e-05	0.004533674793505359
1.21045e-05	0.00450451391954093
1.21048e-05	0.004480912204031442
1.21050e-05	0.00445750271262671
1.21053e-05	0.0044420033157253295
1.21055e-05	0.004426777433393799
1.21058e-05	0.004411551551062372
1.21060e-05	0.0044039765818932
1.21063e-05	0.0043966661653437305
1.21065e-05	0.004394302324085312
1.21068e-05	0.0043921095250833726
1.21070e-05	0.00439614938094161
1.21072e-05	0.004400404749005438
1.21075e-05	0.004404660117069295
1.21078e-05	0.004415051293940855
1.21080e-05	0.00442565463428346
1.21083e-05	0.00444007615462553
1.21085e-05	0.004454629699668402
1.21088e-05	0.0044724329511354015
1.21090e-05	0.004490348570672514
1.21093e-05	0.004511962719199306
1.21095e-05	0.004533704755144562
1.21098e-05	0.0045554467910896715
1.21100e-05	0.004580045072928208
1.21103e-05	0.004604742117792505
1.21105e-05	0.004630671080452015
1.21108e-05	0.004656642640259673
1.21110e-05	0.004683346509257351
1.21113e-05	0.004710075699979278
1.21115e-05	0.00473706054627602
1.21118e-05	0.004764054232609318
1.21120e-05	0.004790543584309732
1.21123e-05	0.0048170154971706024
1.21125e-05	0.0048420950323552
1.21128e-05	0.004867126422023615
1.21130e-05	0.004890140923259249
1.21133e-05	0.004913085684699407
1.21135e-05	0.004933391297439003
1.21138e-05	0.004953605653921032
1.21140e-05	0.004969187003276001
1.21143e-05	0.004984608152907238
1.21145e-05	0.005000029302538579
1.21148e-05	0.005007431609026993
1.21150e-05	0.005014556640643908
1.21153e-05	0.005021681672260871
1.21155e-05	0.005028806703877835
1.21158e-05	0.005031111059165047
1.21160e-05	0.005027904101619493
1.21163e-05	0.0050246971440739375
1.21165e-05	0.005021490186528405
1.21168e-05	0.005018283228982849
1.21170e-05	0.005008010360443566
1.21173e-05	0.004997493167439077
1.21175e-05	0.004983131463711678
1.21178e-05	0.00496863682482165
1.21180e-05	0.0049514186438857554
1.21183e-05	0.004932354057644928
1.21185e-05	0.004911594577647267
1.21188e-05	0.004889296864684048
1.21190e-05	0.004865619678127514
1.21193e-05	0.004840720458182798
1.21195e-05	0.0048147579486586866
1.21198e-05	0.0047878787874125845
1.21200e-05	0.0047602062370983725
1.21203e-05	0.004731870418298111
1.21205e-05	0.004703043125173968
1.21208e-05	0.004673920088616563
1.21210e-05	0.004644697367591488
1.21213e-05	0.0046155710055009
1.21215e-05	0.0045867374958441995
1.21218e-05	0.0045583865962171895
1.21220e-05	0.004530691627241657
1.21223e-05	0.004503831650624609
1.21225e-05	0.004478011151441038
1.21228e-05	0.004453449889449778
1.21230e-05	0.004430368122439382
1.21233e-05	0.0044089856581010795
1.21235e-05	0.004389522738660454
1.21238e-05	0.004372274338147999
1.21240e-05	0.004357700049349794
1.21243e-05	0.004346223658890414
1.21245e-05	0.004339569879664871
1.21248e-05	0.0043330792598117104
1.21250e-05	0.004336012563538483
1.21253e-05	0.004339271726888361
1.21255e-05	0.004342530890238239
1.21258e-05	0.004345790053588116
1.21260e-05	0.0043621259095597215
1.21263e-05	0.004378913930289769
1.21265e-05	0.004395701951019815
1.21268e-05	0.004412489971749749
1.21270e-05	0.0044402521280459935
1.21273e-05	0.00446839374706272
1.21275e-05	0.004496535366079256
1.21278e-05	0.004532846711037379
1.21280e-05	0.004569440548080029
1.21283e-05	0.004606034385122431
1.21285e-05	0.0046497393179805845
1.21288e-05	0.00469369013770141
1.21290e-05	0.004737640957421936
1.21293e-05	0.004786768352430661
1.21295e-05	0.004836074742616813
1.21298e-05	0.004885381132802629
1.21300e-05	0.004937627036982563
1.21303e-05	0.004989974583425906
1.21305e-05	0.005043684801087388
1.21308e-05	0.005097442137078055
1.21310e-05	0.005151453103203032
1.21313e-05	0.005205472839328732
1.21315e-05	0.005258626137107783
1.21318e-05	0.005311749475255781
1.21320e-05	0.005362966874088925
1.21323e-05	0.005414118369515818
1.21325e-05	0.005462268387479326
1.21328e-05	0.005510314620611482
1.21330e-05	0.005552785266718781
1.21333e-05	0.005595063120654738
1.21335e-05	0.005637340974590409
1.21338e-05	0.005670989852753366
1.21340e-05	0.005704340358929917
1.21343e-05	0.005737690865106468
1.21345e-05	0.005760601164283149
1.21348e-05	0.005783150462875099
1.21350e-05	0.005805699761467049
1.21353e-05	0.0058282490600588465
1.21355e-05	0.0058380905212119475
1.21358e-05	0.005847492571848656
1.21360e-05	0.005856894622485302
1.21363e-05	0.00586629667312201
1.21365e-05	0.00586522475942091
1.21368e-05	0.0058637906778764345
1.21370e-05	0.00586235659633195
1.21373e-05	0.005853991983223523
1.21375e-05	0.0058453877267873235
1.21378e-05	0.005831585740464845
1.21380e-05	0.0058176040274827865
1.21383e-05	0.005800163537629452
1.21385e-05	0.005780550104127188
1.21388e-05	0.005758953654554799
1.21390e-05	0.005735520406556659
1.21393e-05	0.005710397477972361
1.21395e-05	0.00568373021737747
1.21398e-05	0.005655684165496732
1.21400e-05	0.005626477324661242
1.21403e-05	0.005596363694434826
1.21405e-05	0.005565572351528267
1.21408e-05	0.005534307614786275
1.21410e-05	0.005502773428289451
1.21413e-05	0.005471173751681848
1.21415e-05	0.005439712094509037
1.21418e-05	0.0054086027531020054
1.21420e-05	0.0053780964051418165
1.21423e-05	0.005348462527200343
1.21425e-05	0.005319957249791316
1.21427e-05	0.005292820017439318
1.21430e-05	0.005268188109678129
1.21433e-05	0.005243641240578988
1.21435e-05	0.005224028794127939
1.21438e-05	0.005204586969721685
1.21440e-05	0.005185145145315299
1.21443e-05	0.005170656004669439
1.21445e-05	0.005156338117499562
1.21448e-05	0.0051420202303295885
1.21450e-05	0.005130308494248704
1.21453e-05	0.005121576280743086
1.21455e-05	0.005112844067237409
1.21458e-05	0.005104111853731733
1.21460e-05	0.0051002496774493426
1.21463e-05	0.0050965558968979795
1.21465e-05	0.005092862116346617
1.21468e-05	0.0050963107805297595
1.21470e-05	0.0051000064155567685
1.21473e-05	0.005103702050583778
1.21475e-05	0.005107397685610763
1.21478e-05	0.005111093320637773
1.21480e-05	0.005114788955664783
1.21483e-05	0.005118484590691768
1.21485e-05	0.005122180225718777
1.21488e-05	0.0051258758607457865
1.21490e-05	0.005132968777175653
1.21493e-05	0.00514394568815893
1.21495e-05	0.005154922599142207
