Time(s)	Current(A)
1.15000e-05	-0.0006574719381783886
1.15003e-05	-0.0006216617006759
1.15005e-05	-0.0005866165801140388
1.15007e-05	-0.0005525296003740327
1.15010e-05	-0.0005196239232555918
1.15013e-05	-0.0004881388335370044
1.15015e-05	-0.0004583150803940961
1.15018e-05	-0.0004303933682013005
1.15020e-05	-0.0004046264115984189
1.15023e-05	-0.0003813378103042572
1.15025e-05	-0.00036093132025528013
1.15028e-05	-0.0003437238462069169
1.15030e-05	-0.00032983236767417405
1.15033e-05	-0.00031927292018641676
1.15035e-05	-0.0003120523052131905
1.15038e-05	-0.0003081772859600281
1.15040e-05	-0.0003076621537562848
1.15043e-05	-0.00031056556748040317
1.15045e-05	-0.0003169964173155282
1.15048e-05	-0.0003270091589953767
1.15050e-05	-0.0003405330021390768
1.15053e-05	-0.0003574339218335771
1.15055e-05	-0.00037757213238108944
1.15058e-05	-0.00040080783467733657
1.15060e-05	-0.0004270059331386533
1.15063e-05	-0.0004560591531352003
1.15065e-05	-0.00048789163320445204
1.15068e-05	-0.0005229369681240616
1.15070e-05	-0.0005600126578847785
1.15073e-05	-0.0005990490084252746
1.15075e-05	-0.0006403809296637268
1.15078e-05	-0.0006832483396369224
1.15080e-05	-0.0007279135225775843
1.15083e-05	-0.0007737275133304064
1.15085e-05	-0.0008208865452949253
1.15088e-05	-0.0008687868564673682
1.15090e-05	-0.00091755506832199
1.15092e-05	-0.0009665457805783218
1.15095e-05	-0.0010157969996032036
1.15098e-05	-0.0010647392573262641
1.15100e-05	-0.0011133197785779413
1.15103e-05	-0.0011613486607878756
1.15105e-05	-0.001207870123600304
1.15108e-05	-0.001253382868291527
1.15110e-05	-0.0012972679922420385
1.15113e-05	-0.001339247473708153
1.15115e-05	-0.0013783363447853463
1.15118e-05	-0.0014140408463792107
1.15120e-05	-0.001449745347973317
1.15123e-05	-0.00148252185188917
1.15125e-05	-0.0015118702127292023
1.15128e-05	-0.0015394792110428588
1.15130e-05	-0.0015650517379324016
1.15133e-05	-0.001590624264821771
1.15135e-05	-0.0016136550816878055
1.15138e-05	-0.001633710026789146
1.15140e-05	-0.0016537649718903508
1.15143e-05	-0.001671668346863304
1.15145e-05	-0.0016870526316427334
1.15148e-05	-0.001701096193745741
1.15150e-05	-0.0017135700178692826
1.15153e-05	-0.0017260438419928242
1.15155e-05	-0.0017363991215758677
1.15158e-05	-0.0017442739778131898
1.15160e-05	-0.0017521488340505118
1.15163e-05	-0.0017600236902877806
1.15165e-05	-0.0017660050139402367
1.15168e-05	-0.0017697693615791716
1.15170e-05	-0.0017735337092180808
1.15173e-05	-0.0017772980568570157
1.15175e-05	-0.0017797813960153163
1.15177e-05	-0.0017807649114592152
1.15180e-05	-0.001781748426903121
1.15183e-05	-0.0017818049556556851
1.15185e-05	-0.001780776154651598
1.15188e-05	-0.0017797473536475038
1.15190e-05	-0.0017782439673479163
1.15193e-05	-0.0017761849295507585
1.15195e-05	-0.0017741258917536148
1.15198e-05	-0.0017716388351868158
1.15200e-05	-0.001768650647901055
1.15203e-05	-0.001765662460615314
1.15205e-05	-0.0017625918121457768
1.15208e-05	-0.0017594246169001532
1.15210e-05	-0.0017562574216545511
1.15213e-05	-0.0017534871769935582
1.15215e-05	-0.0017511816879600955
1.15218e-05	-0.0017488761989266483
1.15220e-05	-0.0017465707098931855
1.15223e-05	-0.0017442652208597225
1.15225e-05	-0.0017419597318262753
1.15228e-05	-0.0017396542427928125
1.15230e-05	-0.0017383539012215056
1.15233e-05	-0.001738230401195808
1.15235e-05	-0.0017381069011701096
1.15238e-05	-0.0017379834011444113
1.15240e-05	-0.0017378599011187137
1.15243e-05	-0.0017377364010930155
1.15245e-05	-0.001737612901067317
1.15248e-05	-0.0017388509199426545
1.15250e-05	-0.0017416830253259316
1.15253e-05	-0.0017445151307092085
1.15255e-05	-0.0017473472360924661
1.15258e-05	-0.0017501793414757432
1.15260e-05	-0.0017530114468590201
1.15262e-05	-0.001755843552242278
1.15265e-05	-0.0017586756576255548
1.15268e-05	-0.0017615077630088317
1.15270e-05	-0.0017643398683920895
1.15273e-05	-0.0017681557966542963
1.15275e-05	-0.0017731235993241525
1.15278e-05	-0.001778091401994009
1.15280e-05	-0.0017830592046638317
1.15283e-05	-0.0017880270073336879
1.15285e-05	-0.0017929948100035443
1.15288e-05	-0.001797962612673367
1.15290e-05	-0.0018029304153432233
1.15293e-05	-0.0018078982180130797
1.15295e-05	-0.0018128660206829022
1.15298e-05	-0.001817795111327203
1.15300e-05	-0.001822678877358239
1.15303e-05	-0.0018275626433892419
1.15305e-05	-0.0018324464094202778
1.15308e-05	-0.001837330175451314
1.15310e-05	-0.0018422139414823167
1.15313e-05	-0.0018470977075133528
1.15315e-05	-0.0018505225755679126
1.15318e-05	-0.0018538876947706688
1.15320e-05	-0.0018572528139734477
1.15323e-05	-0.0018606179331762266
1.15325e-05	-0.0018639830523789827
1.15328e-05	-0.0018673481715817614
1.15330e-05	-0.001869442109820549
1.15333e-05	-0.0018700477305465854
1.15335e-05	-0.0018706533512726257
1.15338e-05	-0.0018712589719986662
1.15340e-05	-0.0018718645927247024
1.15343e-05	-0.0018724702134507428
1.15345e-05	-0.0018730758341767833
1.15347e-05	-0.0018736814549028195
1.15350e-05	-0.00187428707562886
1.15353e-05	-0.0018748926963549004
1.15355e-05	-0.0018754983170809368
1.15358e-05	-0.001876103937806977
1.15360e-05	-0.0018767095585330174
1.15362e-05	-0.0018773151792590538
1.15365e-05	-0.0018779207999850942
1.15368e-05	-0.0018785264207111347
1.15370e-05	-0.001879132041437175
1.15373e-05	-0.0018776609717652158
1.15375e-05	-0.0018761048516860908
1.15378e-05	-0.001874548731606966
1.15380e-05	-0.0018729926115278516
1.15383e-05	-0.0018714364914487267
1.15385e-05	-0.0018698803713696017
1.15388e-05	-0.0018683242512904875
1.15390e-05	-0.0018667681312113625
1.15393e-05	-0.0018652120111322377
1.15395e-05	-0.0018636558910531233
1.15398e-05	-0.0018620997709739985
1.15400e-05	-0.0018605436508948735
1.15403e-05	-0.0018589875308157593
1.15405e-05	-0.0018574314107366343
1.15408e-05	-0.0018558752906575094
1.15410e-05	-0.001854319170578395
1.15413e-05	-0.0018527429921978093
1.15415e-05	-0.0018511766319237832
1.15418e-05	-0.00184968701664521
1.15420e-05	-0.0018482247649816387
1.15423e-05	-0.001846345847350261
1.15425e-05	-0.0018430004128215
1.15428e-05	-0.001837201316318333
1.15430e-05	-0.0018286619324092684
1.15432e-05	-0.0018175039739448703
1.15435e-05	-0.0018033820953470114
1.15438e-05	-0.0017873882599424961
1.15440e-05	-0.0017699082462689266
1.15443e-05	-0.001749544158084503
1.15445e-05	-0.001724868814417934
1.15447e-05	-0.0016967140404700314
1.15450e-05	-0.0016685592665219382
1.15453e-05	-0.0016375787356817612
1.15455e-05	-0.0016020717795340188
1.15458e-05	-0.0015640397979685954
1.15460e-05	-0.0015237180567690123
1.15463e-05	-0.001481186975041184
1.15465e-05	-0.0014362892829792387
1.15468e-05	-0.0013888924702005674
1.15470e-05	-0.0013391387626615317
1.15473e-05	-0.0012873305989947231
1.15475e-05	-0.001233786545147432
1.15478e-05	-0.0011788251762283666
1.15480e-05	-0.0011227504178846952
1.15483e-05	-0.0010657691052730093
1.15485e-05	-0.001007939238226446
1.15488e-05	-0.0009493343855440416
1.15490e-05	-0.0008902001949466743
1.15493e-05	-0.000830882636087078
1.15495e-05	-0.0007717377475740892
1.15498e-05	-0.0007131214378594675
1.15500e-05	-0.0006553805301190174
1.15503e-05	-0.0005988010855314115
1.15505e-05	-0.0005435758512632168
1.15508e-05	-0.0004899072176794906
1.15510e-05	-0.0004381054339866052
1.15513e-05	-0.00038854358524918997
1.15515e-05	-0.00034160099085031294
1.15517e-05	-0.00029765688481788865
1.15520e-05	-0.0002570705184071889
1.15523e-05	-0.00022005259882089162
1.15525e-05	-0.00018654150907652364
1.15528e-05	-0.0001563822049539894
1.15530e-05	-0.00012956834034147588
1.15532e-05	-0.0001062043798424992
1.15535e-05	-8.640724531640939e-05
1.15538e-05	-7.029382003658196e-05
1.15540e-05	-5.7968405376802165e-05
1.15543e-05	-4.9442275407916394e-05
1.15545e-05	-4.455612989969219e-05
1.15548e-05	-4.309214087899085e-05
1.15550e-05	-4.4925635499374784e-05
1.15553e-05	-5.0001356571757226e-05
1.15555e-05	-5.827185733197667e-05
1.15558e-05	-6.968965770146727e-05
1.15560e-05	-8.419939906232837e-05
1.15563e-05	-0.00010168744877696176
1.15565e-05	-0.00012193333634756064
1.15568e-05	-0.00014467994987673295
1.15570e-05	-0.00016972855003850152
1.15573e-05	-0.00019692387836496027
1.15575e-05	-0.00022611557661985978
1.15578e-05	-0.00025715329441488276
1.15580e-05	-0.00029019867931915207
1.15583e-05	-0.00032448016852563007
1.15585e-05	-0.0003597644178133875
1.15588e-05	-0.00039622271346671464
1.15590e-05	-0.00043323022151864706
1.15593e-05	-0.00047088075558688133
1.15595e-05	-0.0005086835581722353
1.15598e-05	-0.000546664638994882
1.15600e-05	-0.0005843866186626276
1.15602e-05	-0.0006218052388576139
1.15605e-05	-0.0006584549482883055
1.15608e-05	-0.0006942044055991907
1.15610e-05	-0.000728678963493386
1.15613e-05	-0.000761660850254649
1.15615e-05	-0.0007928973771510341
1.15617e-05	-0.00082209041084792
1.15620e-05	-0.000849066766192097
1.15623e-05	-0.0008734478016652947
1.15625e-05	-0.0008952242310241905
1.15628e-05	-0.0009139511489391097
1.15630e-05	-0.0009299285458903032
1.15633e-05	-0.0009426867629437911
1.15635e-05	-0.0009526245232882556
1.15638e-05	-0.0009592600511132611
1.15640e-05	-0.0009630038915330086
1.15643e-05	-0.0009633621014782689
1.15645e-05	-0.0009608097203326485
1.15648e-05	-0.0009548495759972243
1.15650e-05	-0.000946112185292395
1.15653e-05	-0.0009341231533740075
1.15655e-05	-0.0009201633653051609
1.15658e-05	-0.0009026424031277452
1.15660e-05	-0.0008824442197394353
1.15663e-05	-0.0008596662174558735
1.15665e-05	-0.0008344178903454668
1.15668e-05	-0.0008068398962014865
1.15670e-05	-0.000777103168992517
1.15673e-05	-0.0007453897724543844
1.15675e-05	-0.0007118824380876344
1.15678e-05	-0.0006767640007355892
1.15680e-05	-0.000640216857061431
1.15683e-05	-0.0006024235541149246
1.15685e-05	-0.0005635742475573952
1.15687e-05	-0.0005238785348935603
1.15690e-05	-0.00048356493754846645
1.15693e-05	-0.0004428689607609788
1.15695e-05	-0.0004020265760986255
1.15698e-05	-0.0003612737328945481
1.15700e-05	-0.00032084608977809816
1.15702e-05	-0.0002809794139226159
1.15705e-05	-0.00024191421562057156
1.15708e-05	-0.00020390314953049624
1.15710e-05	-0.00016721071570670462
1.15713e-05	-0.00013210578047647282
1.15715e-05	-9.88574686771266e-05
1.15718e-05	-6.773487154611791e-05
1.15720e-05	-3.9026102950717696e-05
1.15723e-05	-1.3135870626167563e-05
1.15725e-05	9.384286424275716e-06
1.15728e-05	2.808612152533536e-05
1.15730e-05	4.281145410168739e-05
1.15733e-05	5.3553758158987766e-05
1.15735e-05	6.0320681259421134e-05
1.15738e-05	6.311989700370989e-05
1.15740e-05	6.194716842042979e-05
1.15743e-05	5.6725241366915925e-05
1.15745e-05	4.728490422566749e-05
1.15748e-05	3.352166823084327e-05
1.15750e-05	1.5512752755383413e-05
1.15753e-05	-6.56963401211219e-06
1.15755e-05	-3.254440937737846e-05
1.15758e-05	-6.223048602694729e-05
1.15760e-05	-9.545423992050222e-05
1.15763e-05	-0.00013208779983634676
1.15765e-05	-0.00017206088740730533
1.15768e-05	-0.00021526268577808978
1.15770e-05	-0.00026146857272223606
1.15772e-05	-0.000310394425545613
1.15775e-05	-0.0003617505883762664
1.15778e-05	-0.00041564013946519986
1.15780e-05	-0.00047105979893968895
1.15783e-05	-0.0005278436609867145
1.15785e-05	-0.0005862247516258736
1.15787e-05	-0.0006454928139194879
1.15790e-05	-0.0007057993557740036
1.15793e-05	-0.0007663546084596982
1.15795e-05	-0.0008272010554730168
1.15798e-05	-0.0008876389951803378
1.15800e-05	-0.0009475986484796396
1.15803e-05	-0.0010065332393709848
1.15805e-05	-0.0010642676720008346
1.15808e-05	-0.0011203539177548469
1.15810e-05	-0.0011745104418840588
1.15813e-05	-0.0012262948081980397
1.15815e-05	-0.001275301816981559
1.15818e-05	-0.0013212363199151457
1.15820e-05	-0.0013635734874572866
1.15823e-05	-0.0014037159236923314
1.15825e-05	-0.0014403384570900082
1.15828e-05	-0.0014758483898759938
1.15830e-05	-0.001510296498618884
1.15833e-05	-0.001543501408032937
1.15835e-05	-0.001574711428932246
1.15838e-05	-0.0016035858047896588
1.15840e-05	-0.0016324601806470716
1.15843e-05	-0.001659428716415249
1.15845e-05	-0.0016841658663579154
1.15848e-05	-0.0017082017565984466
1.15850e-05	-0.0017314166015850857
1.15853e-05	-0.001754631446571882
1.15855e-05	-0.001776320884791035
1.15857e-05	-0.0017962243541559903
1.15860e-05	-0.0018161278235210804
1.15863e-05	-0.0018360312928861705
1.15865e-05	-0.0018546993460650384
1.15868e-05	-0.0018719209556612014
1.15870e-05	-0.0018891425652573645
1.15872e-05	-0.0019063641748534108
1.15875e-05	-0.0019225504255661972
1.15878e-05	-0.0019375244627515085
1.15880e-05	-0.0019524984999368198
1.15883e-05	-0.0019674725371220296
1.15885e-05	-0.0019815568140238464
1.15888e-05	-0.001994599346397066
1.15890e-05	-0.0020076418787701973
1.15893e-05	-0.002020684411143417
1.15895e-05	-0.0020328631121182507
1.15898e-05	-0.0020440304264874067
1.15900e-05	-0.002055197740856638
1.15903e-05	-0.0020663650552258696
1.15905e-05	-0.0020766603868201715
1.15908e-05	-0.002085934788056497
1.15910e-05	-0.0020952091892928225
1.15913e-05	-0.002104483590529085
1.15915e-05	-0.002113231557638152
1.15918e-05	-0.0021210851630273715
1.15920e-05	-0.0021282453917368846
1.15923e-05	-0.0021342054487914815
1.15925e-05	-0.0021378868287102223
1.15928e-05	-0.002138296365456426
1.15930e-05	-0.0021351375672945773
1.15933e-05	-0.0021277677717732664
1.15935e-05	-0.0021176970315280176
1.15938e-05	-0.0021047539499909613
1.15940e-05	-0.0020884478886933062
1.15942e-05	-0.0020689545855595306
1.15945e-05	-0.0020457296124397352
1.15948e-05	-0.0020187140883682745
1.15950e-05	-0.0019872605310559993
1.15953e-05	-0.0019531797100213947
1.15955e-05	-0.0019144428233245918
1.15957e-05	-0.0018724044834358144
1.15960e-05	-0.0018273212051802318
1.15963e-05	-0.0017793010410447785
1.15965e-05	-0.0017282278116449957
1.15968e-05	-0.0016740187773947057
1.15970e-05	-0.001616864597027219
1.15973e-05	-0.0015571131569524698
1.15975e-05	-0.001495127896645261
1.15978e-05	-0.0014312723811548147
1.15980e-05	-0.0013658960178777016
1.15983e-05	-0.0012992550581824333
1.15985e-05	-0.0012314654144279463
1.15988e-05	-0.001162663944794051
1.15990e-05	-0.001093158563548742
1.15993e-05	-0.0010233558306055996
1.15995e-05	-0.000953672109943791
1.15998e-05	-0.0008845235954996814
1.16000e-05	-0.0008163176411675408
1.16003e-05	-0.0007494033207851924
1.16005e-05	-0.0006840416446073913
1.16008e-05	-0.0006205068041040308
1.16010e-05	-0.0005591801910283799
1.16013e-05	-0.0005005048452714782
1.16015e-05	-0.00044492989714413697
1.16018e-05	-0.00039290442333089455
1.16020e-05	-0.00034482541907573526
1.16023e-05	-0.00030072505509354914
1.16025e-05	-0.0002600235093392246
1.16027e-05	-0.00022206178987974897
1.16030e-05	-0.00018669385114310384
1.16033e-05	-0.0001541009694647169
1.16035e-05	-0.00012449879302826387
1.16038e-05	-9.810292366531093e-05
1.16040e-05	-7.509631894876866e-05
1.16042e-05	-5.5433412471713044e-05
1.16045e-05	-3.868528842525712e-05
1.16048e-05	-2.4373480876569886e-05
1.16050e-05	-1.2340862585736897e-05
1.16053e-05	-2.6353381922689224e-06
1.16055e-05	4.673656099797209e-06
1.16058e-05	9.516734598908211e-06
1.16060e-05	1.1844957494643861e-05
1.16063e-05	1.1752542209082907e-05
1.16065e-05	9.573816679575706e-06
1.16068e-05	5.6741152267118105e-06
1.16070e-05	2.1746665185164195e-07
1.16073e-05	-6.760538535234798e-06
1.16075e-05	-1.5237795671777072e-05
1.16078e-05	-2.5192167879746568e-05
1.16080e-05	-3.6588711510794804e-05
1.16083e-05	-4.930281446676811e-05
1.16085e-05	-6.305947117750167e-05
1.16088e-05	-7.756427976715426e-05
1.16090e-05	-9.264895295274253e-05
1.16093e-05	-0.00010831085284965372
1.16095e-05	-0.00012431478364535866
1.16098e-05	-0.0001405823119244369
1.16100e-05	-0.0001571584640446881
1.16103e-05	-0.000173710607813868
1.16105e-05	-0.00019023464224961683
1.16108e-05	-0.00020631887104387072
1.16110e-05	-0.00022188816887351362
1.16113e-05	-0.00023677680665576374
1.16115e-05	-0.0002508685175650335
1.16118e-05	-0.0002643171210677245
1.16120e-05	-0.00027656214660401793
1.16123e-05	-0.0002880983475183168
1.16125e-05	-0.0002999627408852707
1.16127e-05	-0.00031245982381990087
1.16130e-05	-0.0003260408543661718
1.16133e-05	-0.000340890986843952
1.16135e-05	-0.00035574111932173215
1.16138e-05	-0.00037129571350850456
1.16140e-05	-0.0003876751019069954
1.16143e-05	-0.00040480640115925427
1.16145e-05	-0.0004228180487849585
1.16148e-05	-0.0004421493412522854
1.16150e-05	-0.00046302569346188323
1.16153e-05	-0.00048522548242233395
1.16155e-05	-0.0005089747707490842
1.16158e-05	-0.0005327240590758343
1.16160e-05	-0.0005576479142775004
1.16163e-05	-0.0005839469697880113
1.16165e-05	-0.0006102460252985223
1.16168e-05	-0.0006379558767196933
1.16170e-05	-0.0006673175089066128
1.16173e-05	-0.0006966791410935322
1.16175e-05	-0.0007268726963295106
1.16178e-05	-0.0007580402794039313
1.16180e-05	-0.000789207862478352
1.16183e-05	-0.0008207563615210261
1.16185e-05	-0.0008527508426263835
1.16188e-05	-0.0008847453237317409
1.16190e-05	-0.0009168270924934578
1.16193e-05	-0.0009490110589376422
1.16195e-05	-0.0009811950253818267
1.16198e-05	-0.0010126950716749157
1.16200e-05	-0.0010433943741172875
1.16203e-05	-0.0010740936765596593
1.16205e-05	-0.001103617339577312
1.16208e-05	-0.0011317645465294865
1.16210e-05	-0.001159911753481661
1.16212e-05	-0.0011862329984725735
1.16215e-05	-0.0012104163801318628
1.16218e-05	-0.001234599761791152
1.16220e-05	-0.0012562285985881652
1.16223e-05	-0.0012748665363921021
1.16225e-05	-0.0012935044741961654
1.16228e-05	-0.0013094586785461328
1.16230e-05	-0.001322270727984602
1.16233e-05	-0.001335082777423158
1.16235e-05	-0.001345042274110379
1.16238e-05	-0.0013516619597502867
1.16240e-05	-0.0013582816453902393
1.16243e-05	-0.001362002962537744
1.16245e-05	-0.0013623308268891144
1.16248e-05	-0.001362658691240487
1.16250e-05	-0.0013603485842514145
1.16253e-05	-0.0013549499013119173
1.16255e-05	-0.0013495512183723832
1.16258e-05	-0.0013420773576487386
1.16260e-05	-0.0013321738480133274
1.16263e-05	-0.0013207546113707066
1.16265e-05	-0.0013075607390791119
1.16268e-05	-0.001293078225331422
1.16270e-05	-0.0012770869510639869
1.16273e-05	-0.001260245895797584
1.16275e-05	-0.00124190167674202
1.16278e-05	-0.0012224980033300086
1.16280e-05	-0.0012021319710962483
1.16283e-05	-0.0011809161374575668
1.16285e-05	-0.0011589929758986021
1.16288e-05	-0.0011365180069771086
1.16290e-05	-0.0011136342753387024
1.16293e-05	-0.001090474478798682
1.16295e-05	-0.0010671700410951758
1.16297e-05	-0.0010438523506595752
1.16300e-05	-0.0010206539482461848
1.16303e-05	-0.0009977172565648266
1.16305e-05	-0.0009752034934847242
1.16308e-05	-0.0009532819407158874
1.16310e-05	-0.000932342376648346
1.16313e-05	-0.0009121219374657516
1.16315e-05	-0.0008926577395556113
1.16318e-05	-0.0008746777377308714
1.16320e-05	-0.0008580141688860894
1.16323e-05	-0.0008423973601314287
1.16325e-05	-0.0008269734621416928
1.16328e-05	-0.0008109021843480109
1.16330e-05	-0.0007939544261747201
1.16333e-05	-0.0007761579657612829
1.16335e-05	-0.0007578856205741404
1.16338e-05	-0.0007393210458586595
1.16340e-05	-0.0007204143244790515
1.16343e-05	-0.0007012245572763995
1.16345e-05	-0.0006808603584846976
1.16348e-05	-0.0006595091190735372
1.16350e-05	-0.0006370250796542324
1.16353e-05	-0.0006132147411926221
1.16355e-05	-0.0005886045623198757
1.16358e-05	-0.0005630579184368858
1.16360e-05	-0.000536951645018971
1.16363e-05	-0.0005101901490450561
1.16365e-05	-0.00048282617518200714
1.16368e-05	-0.0004542720188841285
1.16370e-05	-0.00042474231625112813
1.16373e-05	-0.00039441633201401277
1.16375e-05	-0.00036348792449757416
1.16378e-05	-0.0003321509297924174
1.16380e-05	-0.00030058572773957826
1.16382e-05	-0.0002688819518550505
1.16385e-05	-0.0002369856830472212
1.16388e-05	-0.000204846324136932
1.16390e-05	-0.00017256355812861657
1.16393e-05	-0.0001403269266896671
1.16395e-05	-0.00010833509035967189
1.16398e-05	-7.678665989221888e-05
1.16400e-05	-4.5871831429457436e-05
1.16403e-05	-1.5723924165007513e-05
1.16405e-05	1.3613677545806518e-05
1.16408e-05	4.209547232899519e-05
1.16410e-05	6.739812762364972e-05
1.16413e-05	8.321818551512227e-05
1.16415e-05	-0.00048254598993585683
1.16418e-05	-0.005436918037506645
1.16420e-05	-0.010400965664247799
1.16423e-05	-0.01066570654330048
1.16425e-05	-0.008946539712703441
