Time(s)	Current(A)
3.25000e-06	-0.003450475508120772
3.25025e-06	-0.0034348179213889883
3.25050e-06	-0.003417835918285704
3.25075e-06	-0.0033995643290108727
3.25100e-06	-0.0033799818742545696
3.25125e-06	-0.0033591076927763515
3.25150e-06	-0.003337040894224886
3.25175e-06	-0.0033139130660001037
3.25200e-06	-0.0032898584532086404
3.25225e-06	-0.003265011411470649
3.25250e-06	-0.0032395014182313013
3.25275e-06	-0.003213424688354733
3.25300e-06	-0.0031868427835604453
3.25325e-06	-0.0031598422739132757
3.25350e-06	-0.0031325601802305626
3.25375e-06	-0.003105153614911943
3.25400e-06	-0.003077781123287068
3.25425e-06	-0.00305060150819354
3.25450e-06	-0.0030237707656276223
3.25475e-06	-0.0029974237378029814
3.25500e-06	-0.0029716734066001574
3.25525e-06	-0.0029466490214490907
3.25550e-06	-0.002922510920572491
3.25575e-06	-0.002899431938340207
3.25600e-06	-0.002877586072740395
3.25625e-06	-0.002857147566930539
3.25650e-06	-0.0028382100290610095
3.25675e-06	-0.00282031292680293
3.25700e-06	-0.0028023398492216735
3.25725e-06	-0.002783441339781977
3.25750e-06	-0.0027634878628591685
3.25775e-06	-0.0027426501562443566
3.25800e-06	-0.0027211297042803325
3.25825e-06	-0.002699127660304527
3.25850e-06	-0.0026767947671612483
3.25875e-06	-0.0026539351693695545
3.25900e-06	-0.0026299415492432227
3.25925e-06	-0.002604374324535102
3.25950e-06	-0.00257724464145842
3.25975e-06	-0.0025487517123598843
3.26000e-06	-0.0025191140917164823
3.26025e-06	-0.0024885504075026522
3.26050e-06	-0.002457247261692089
3.26075e-06	-0.0024251741299621305
3.26100e-06	-0.0023916075750638793
3.26125e-06	-0.002357469946091349
3.26150e-06	-0.002322156915093329
3.26175e-06	-0.0022857186937832257
3.26200e-06	-0.0022485851698180637
3.26225e-06	-0.002210985534387229
3.26250e-06	-0.0021731290496743473
3.26275e-06	-0.0021350890471994372
3.26300e-06	-0.0020967773394548485
3.26325e-06	-0.002058171472177859
3.26350e-06	-0.0020194261650267734
3.26375e-06	-0.0019807695335490117
3.26400e-06	-0.0019424376865253888
3.26425e-06	-0.0019046663464743884
3.26450e-06	-0.001867678795843214
3.26475e-06	-0.0018316131442819527
3.26500e-06	-0.0017965064985345776
3.26525e-06	-0.0017624369735164346
3.26550e-06	-0.0017295935925336766
3.26575e-06	-0.001698211700152324
3.26600e-06	-0.0016685311854325393
3.26625e-06	-0.0016407918639373413
3.26650e-06	-0.0016152201672294023
3.26675e-06	-0.0015919380444288553
3.26700e-06	-0.0015709114398149782
3.26725e-06	-0.0015520851287882066
3.26750e-06	-0.001536273207845911
3.26775e-06	-0.0015215332818727936
3.26800e-06	-0.0015108981544332645
3.26825e-06	-0.0015021564891121825
3.26850e-06	-0.001493414823791086
3.26875e-06	-0.0014896349313555284
3.26900e-06	-0.0014881438063033534
3.26925e-06	-0.0014866526812511813
3.26950e-06	-0.0014896547562965933
3.26975e-06	-0.0014947294553954642
3.27000e-06	-0.0014998041544943266
3.27025e-06	-0.0015084247107813216
3.27050e-06	-0.0015186809006342745
3.27075e-06	-0.0015315315152102458
3.27100e-06	-0.0015455788864337909
3.27125e-06	-0.0015618231457050712
3.27150e-06	-0.0015790807858433397
3.27175e-06	-0.0015982240563558593
3.27200e-06	-0.0016182371307464495
3.27225e-06	-0.0016398436580049754
3.27250e-06	-0.0016621852134550493
3.27275e-06	-0.0016857561849318548
3.27300e-06	-0.0017098942616283997
3.27325e-06	-0.0017347888928413715
3.27350e-06	-0.0017600325076416031
3.27375e-06	-0.001785614187949217
3.27400e-06	-0.001811351811167664
3.27425e-06	-0.0018370208015512442
3.27450e-06	-0.0018626581329699373
3.27475e-06	-0.0018877752410440042
3.27500e-06	-0.0019126523804111673
3.27525e-06	-0.0019364896705890513
3.27550e-06	-0.0019598472989680684
3.27575e-06	-0.001981679430147307
3.27600e-06	-0.0020028078797362857
3.27625e-06	-0.002022493725293991
3.27650e-06	-0.002040457905545773
3.27675e-06	-0.0020572385854685576
3.27700e-06	-0.002073703021493821
3.27725e-06	-0.0020906580926128614
3.27750e-06	-0.002107838432977437
3.27775e-06	-0.002125350133571395
3.27800e-06	-0.0021430146840645562
3.27825e-06	-0.002160679234557717
3.27850e-06	-0.002178219956492606
3.27875e-06	-0.0021957035587705405
3.27900e-06	-0.00221413285220233
3.27925e-06	-0.0022329983741995497
3.27950e-06	-0.0022521932318763553
3.27975e-06	-0.0022728454031007038
3.28000e-06	-0.0022934975743250526
3.28025e-06	-0.0023147878118298776
3.28050e-06	-0.0023363723766498096
3.28075e-06	-0.0023579569414697416
3.28100e-06	-0.0023808524832810356
3.28125e-06	-0.0024043527527668846
3.28150e-06	-0.0024278530222527337
3.28175e-06	-0.0024513532917385824
3.28200e-06	-0.00247505550479079
3.28225e-06	-0.0024996513200652363
3.28250e-06	-0.002524247135339682
3.28275e-06	-0.0025488429506140865
3.28300e-06	-0.0025734387658885322
3.28325e-06	-0.0025981267997575736
3.28350e-06	-0.0026228573722345567
3.28375e-06	-0.0026475879447114977
3.28400e-06	-0.0026716564871741275
3.28425e-06	-0.002695419648326729
3.28450e-06	-0.0027191828094792897
3.28475e-06	-0.002741636091270162
3.28500e-06	-0.0027634851517012848
3.28525e-06	-0.0027853342121323707
3.28550e-06	-0.002805796594533436
3.28575e-06	-0.0028256193298728392
3.28600e-06	-0.0028443087271876766
3.28625e-06	-0.0028615773354726095
3.28650e-06	-0.0028773807502466254
3.28675e-06	-0.002891214390085693
3.28700e-06	-0.0029022536209790347
3.28725e-06	-0.0029099073549744858
3.28750e-06	-0.0029140461568612627
3.28775e-06	-0.0029135737309404384
3.28800e-06	-0.0029114853564821868
3.28825e-06	-0.0029048782089259803
3.28850e-06	-0.002896186640998374
3.28875e-06	-0.0028826630506327165
3.28900e-06	-0.0028669105441903485
3.28925e-06	-0.0028470943206598967
3.28950e-06	-0.0028227937050099307
3.28975e-06	-0.002794827662753426
3.29000e-06	-0.002763412321886314
3.29025e-06	-0.002728764313081945
3.29050e-06	-0.002691082151833204
3.29075e-06	-0.0026504455692761292
3.29100e-06	-0.0026068088684089784
3.29125e-06	-0.00256021766949314
3.29150e-06	-0.0025108990655008916
3.29175e-06	-0.0024591524058178993
3.29200e-06	-0.002405284095571211
3.29225e-06	-0.002349600380554633
3.29250e-06	-0.0022923964390641448
3.29275e-06	-0.0022338927494136556
3.29300e-06	-0.0021742314649263158
3.29325e-06	-0.0021136119760410146
3.29350e-06	-0.0020523471840375707
3.29375e-06	-0.0019907951963898454
3.29400e-06	-0.0019293184507431296
3.29425e-06	-0.0018682795073277124
3.29450e-06	-0.0018080338298709286
3.29475e-06	-0.0017488899970537941
3.29500e-06	-0.0016911076467096364
3.29525e-06	-0.0016349821883272723
3.29550e-06	-0.001580880105900406
3.29575e-06	-0.0015291961219372151
3.29600e-06	-0.0014803278376798476
3.29625e-06	-0.0014346726888676594
3.29650e-06	-0.0013926622576615232
3.29675e-06	-0.0013549372791472614
3.29700e-06	-0.0013223141157280092
3.29725e-06	-0.0012953477824226573
3.29750e-06	-0.001274195191919042
3.29775e-06	-0.0012588629622015072
3.29800e-06	-0.0012513289391504977
3.29825e-06	-0.0012465449097076768
3.29850e-06	-0.0012497955824388412
3.29875e-06	-0.0012567525038635638
3.29900e-06	-0.0012722464258064705
3.29925e-06	-0.0012916782967028562
3.29950e-06	-0.0013194179272791426
3.29975e-06	-0.0013509897625585538
3.30000e-06	-0.0013901632320026198
3.30025e-06	-0.001432843184460167
3.30050e-06	-0.0014824736554014605
3.30075e-06	-0.0015353102626117986
3.30100e-06	-0.0015947094514642227
3.30125e-06	-0.0016571358290177155
3.30150e-06	-0.0017252786086948539
3.30175e-06	-0.0017960582512507165
3.30200e-06	-0.0018714095655722155
3.30225e-06	-0.0019488697013709856
3.30250e-06	-0.0020297911547448107
3.30275e-06	-0.0021123092452387878
3.30300e-06	-0.0021973437667872353
3.30325e-06	-0.0022835390680516136
3.30350e-06	-0.0023710185163439315
3.30375e-06	-0.0024590903161809843
3.30400e-06	-0.002547027320014971
3.30425e-06	-0.0026349021451274927
3.30450e-06	-0.0027212450598735286
3.30475e-06	-0.0028068813347624953
3.30500e-06	-0.0028896923109238046
3.30525e-06	-0.0029712000328396457
3.30550e-06	-0.0030484091006624703
3.30575e-06	-0.003123635284643046
3.30600e-06	-0.0031912011466802325
3.30625e-06	-0.003255233454195774
3.30650e-06	-0.003319265761711207
3.30675e-06	-0.003376443124189563
3.30700e-06	-0.0034260366708821844
3.30725e-06	-0.0034735905448135527
3.30750e-06	-0.0035211444187448404
3.30775e-06	-0.003563081341110263
3.30800e-06	-0.0036024272751660085
3.30825e-06	-0.0036363679054381114
3.30850e-06	-0.0036678151763232213
3.30875e-06	-0.003694216918099203
3.30900e-06	-0.003718291257407007
3.30925e-06	-0.0037388169246381077
3.30950e-06	-0.0037577056598504933
3.30975e-06	-0.0037719992481857257
3.31000e-06	-0.00378417318644022
3.31025e-06	-0.0037963471246947357
3.31050e-06	-0.0038036238466211355
3.31075e-06	-0.0038086415798225157
3.31100e-06	-0.003810758888627851
3.31125e-06	-0.0038115382892074828
3.31150e-06	-0.0038100161994040088
3.31175e-06	-0.003807432477751386
3.31200e-06	-0.0038025189840483775
3.31225e-06	-0.0037965308127242384
3.31250e-06	-0.0037887917273622517
3.31275e-06	-0.0037792508994068433
3.31300e-06	-0.0037685659104056816
3.31325e-06	-0.0037570742344824513
3.31350e-06	-0.003744921035172561
3.31375e-06	-0.0037321674332116465
3.31400e-06	-0.0037188665386639072
3.31425e-06	-0.00370507126524406
3.31450e-06	-0.003690849210011181
3.31475e-06	-0.0036763727094400447
3.31500e-06	-0.0036619467013537382
3.31525e-06	-0.003647845251595211
3.31550e-06	-0.0036344305067139283
3.31575e-06	-0.0036212741783636228
3.31600e-06	-0.0036088091973616155
3.31625e-06	-0.003597211705852648
3.31650e-06	-0.003586407564916268
3.31675e-06	-0.0035759151120155416
3.31700e-06	-0.0035646654787087734
3.31725e-06	-0.003551854459161272
3.31750e-06	-0.003537349778518868
3.31775e-06	-0.0035212972853010953
3.31800e-06	-0.003503478864323648
3.31825e-06	-0.0034850632409791664
3.31850e-06	-0.0034655452699442323
3.31875e-06	-0.003444586389104819
3.31900e-06	-0.003421811839328953
3.31925e-06	-0.0033968320696053486
3.31950e-06	-0.003369678049487699
3.31975e-06	-0.003340555117881707
3.32000e-06	-0.0033096861672106547
3.32025e-06	-0.0032772941757339123
3.32050e-06	-0.003243573196540698
3.32075e-06	-0.003208519557539891
3.32100e-06	-0.0031718990789198465
3.32125e-06	-0.0031335817611645874
3.32150e-06	-0.003093701122367198
3.32175e-06	-0.003052499690502656
3.32200e-06	-0.003010231018141762
3.32225e-06	-0.002967148976522196
3.32250e-06	-0.002923488782542446
3.32275e-06	-0.0028793621010830468
3.32300e-06	-0.002834736307464079
3.32325e-06	-0.0027896438943846523
3.32350e-06	-0.002744282334900572
3.32375e-06	-0.002698917364948555
3.32400e-06	-0.0026538219478790706
3.32425e-06	-0.0026092687160371147
3.32450e-06	-0.0025655192466089347
3.32475e-06	-0.0025227569849621094
3.32500e-06	-0.0024810753965327026
3.32525e-06	-0.00244060876287555
3.32550e-06	-0.002401594498251758
3.32575e-06	-0.002364312944700173
3.32600e-06	-0.0023290486947647056
3.32625e-06	-0.002296086586158453
3.32650e-06	-0.0022656389475877413
3.32675e-06	-0.0022374150376434287
3.32700e-06	-0.0022105087070110967
3.32725e-06	-0.002184212720625332
3.32750e-06	-0.0021584386074588353
3.32775e-06	-0.0021333608048455075
3.32800e-06	-0.0021091809441226668
3.32825e-06	-0.002086100497294424
3.32850e-06	-0.0020642756121998966
3.32875e-06	-0.0020435475934367383
3.32900e-06	-0.0020233719897325697
3.32925e-06	-0.0020033287557151527
3.32950e-06	-0.00198338601813176
3.32975e-06	-0.0019638232490421085
3.33000e-06	-0.0019444166984782364
3.33025e-06	-0.0019257887302645263
3.33050e-06	-0.001907519906640869
3.33075e-06	-0.0018898925590310495
3.33100e-06	-0.0018725611115787428
3.33125e-06	-0.0018553127033504786
3.33150e-06	-0.0018381025994686228
3.33175e-06	-0.001820892495586767
3.33200e-06	-0.0018043353586872741
3.33225e-06	-0.0017880794225010417
3.33250e-06	-0.0017718234863148092
3.33275e-06	-0.0017557605340483414
3.33300e-06	-0.0017405515374820924
3.33325e-06	-0.0017253425409158173
3.33350e-06	-0.0017101335443495424
3.33375e-06	-0.0016955298513360248
3.33400e-06	-0.0016812053728414004
3.33425e-06	-0.0016668808943467762
3.33450e-06	-0.0016535722986518557
3.33475e-06	-0.0016407323095360613
3.33500e-06	-0.0016278923204202666
3.33525e-06	-0.0016159540517683571
3.33550e-06	-0.001604431728875234
3.33575e-06	-0.0015929094059820913
3.33600e-06	-0.0015828913690380429
3.33625e-06	-0.0015735672293554826
3.33650e-06	-0.0015642430896729066
3.33675e-06	-0.0015549189499903305
3.33700e-06	-0.0015469923230045438
3.33725e-06	-0.0015397103408974681
3.33750e-06	-0.0015324283587903802
3.33775e-06	-0.0015251463766832922
3.33800e-06	-0.0015192509657803383
3.33825e-06	-0.0015139951526626056
3.33850e-06	-0.0015087393395448732
3.33875e-06	-0.0015034835264271496
3.33900e-06	-0.0014982277133094172
3.33925e-06	-0.0014933129228367583
3.33950e-06	-0.0014899071608470787
3.33975e-06	-0.0014865013988574047
3.34000e-06	-0.001483095636867725
3.34025e-06	-0.0014796898748780454
3.34050e-06	-0.0014762841128883714
3.34075e-06	-0.00147420011507868
3.34100e-06	-0.0014727258208598526
3.34125e-06	-0.0014712515266410253
3.34150e-06	-0.0014697772324222004
3.34175e-06	-0.001468302938203373
3.34200e-06	-0.0014668286439845457
3.34225e-06	-0.0014653543497657208
3.34250e-06	-0.0014638800555468933
3.34275e-06	-0.001462405761328066
3.34300e-06	-0.0014609314671092412
3.34325e-06	-0.0014594571728904137
3.34350e-06	-0.001458806088840829
3.34375e-06	-0.0014585347353088616
3.34400e-06	-0.0014582633817768944
3.34425e-06	-0.001457992028244927
3.34450e-06	-0.0014577206747129594
3.34475e-06	-0.0014574493211809924
3.34500e-06	-0.001457177967649025
3.34525e-06	-0.0014569066141170573
3.34550e-06	-0.00145663526058509
3.34575e-06	-0.0014563639070531227
3.34600e-06	-0.0014560925535211553
3.34625e-06	-0.0014559135264154176
3.34650e-06	-0.0014557770876582365
3.34675e-06	-0.0014556406489010553
3.34700e-06	-0.0014563570111878759
3.34725e-06	-0.0014574667536757268
3.34750e-06	-0.0014585764961635797
3.34775e-06	-0.0014596862386514324
3.34800e-06	-0.0014607959811392852
3.34825e-06	-0.0014619057236271362
3.34850e-06	-0.0014634249634024278
3.34875e-06	-0.0014667562326116299
3.34900e-06	-0.0014700875018208261
3.34925e-06	-0.001473418771030028
3.34950e-06	-0.00147675004023923
3.34975e-06	-0.001480081309448432
3.35000e-06	-0.0014834125786576282
3.35025e-06	-0.0014884331931880929
3.35050e-06	-0.0014942330691966896
3.35075e-06	-0.0015000329452052763
3.35100e-06	-0.001505832821213873
3.35125e-06	-0.0015116326972224698
3.35150e-06	-0.0015174325732310566
3.35175e-06	-0.0015232324492396533
3.35200e-06	-0.00152903232524825
3.35225e-06	-0.0015348322012568466
3.35250e-06	-0.0015415262382476363
3.35275e-06	-0.001548632733958347
3.35300e-06	-0.0015557392296690576
3.35325e-06	-0.0015628457253797565
3.35350e-06	-0.001569952221090467
3.35375e-06	-0.0015770587168011778
3.35400e-06	-0.0015841652125118885
3.35425e-06	-0.0015912717082225871
3.35450e-06	-0.0015983782039332977
3.35475e-06	-0.0016049815621442959
3.35500e-06	-0.001611352833009487
3.35525e-06	-0.001617724103874689
3.35550e-06	-0.001624095374739891
3.35575e-06	-0.001630466645605082
3.35600e-06	-0.0016362314300572402
3.35625e-06	-0.0016414378600211128
3.35650e-06	-0.001646264670605148
3.35675e-06	-0.0016511368947703113
3.35700e-06	-0.0016569560872288247
3.35725e-06	-0.0016649836318940443
3.35750e-06	-0.0016738441766612601
3.35775e-06	-0.0016853261398737467
3.35800e-06	-0.001698017311403139
3.35825e-06	-0.0017107084829325314
3.35850e-06	-0.0017256665031217505
3.35875e-06	-0.0017416701756209601
3.35900e-06	-0.0017620771974926164
3.35925e-06	-0.0017845153970623558
3.35950e-06	-0.0018069535966321333
3.35975e-06	-0.0018293917962019105
3.36000e-06	-0.0018532296380745837
3.36025e-06	-0.001883260910595211
3.36050e-06	-0.0019132921831158383
3.36075e-06	-0.0019433234556364657
3.36100e-06	-0.001973354728157042
3.36125e-06	-0.0020072667234277385
3.36150e-06	-0.002042968819105194
3.36175e-06	-0.0020786709147825886
3.36200e-06	-0.0021164500267269013
3.36225e-06	-0.002155187225064814
3.36250e-06	-0.0021939244234027264
3.36275e-06	-0.002233793791320456
3.36300e-06	-0.002274185406601959
3.36325e-06	-0.002314577021883461
3.36350e-06	-0.0023554305976192648
3.36375e-06	-0.0023964972665469343
3.36400e-06	-0.002437169505799463
3.36425e-06	-0.002477659802468699
3.36450e-06	-0.002517116025782455
3.36475e-06	-0.0025560952515744457
3.36500e-06	-0.0025936615093360826
3.36525e-06	-0.002630575992980088
3.36550e-06	-0.0026655270915819824
3.36575e-06	-0.002699572519619626
3.36600e-06	-0.0027309331809328825
3.36625e-06	-0.002761055412624958
3.36650e-06	-0.0027887871662656922
3.36675e-06	-0.0028141779011177656
3.36700e-06	-0.0028385451472242034
3.36725e-06	-0.0028627037712250507
3.36750e-06	-0.0028864134735495906
3.36775e-06	-0.0029099160972119033
3.36800e-06	-0.002933418720874256
3.36825e-06	-0.0029556998951770475
3.36850e-06	-0.0029774176391251126
3.36875e-06	-0.0029984191797245044
3.36900e-06	-0.0030190903499293822
3.36925e-06	-0.0030402121148106007
3.36950e-06	-0.0030615417300756957
3.36975e-06	-0.0030828713453408267
3.37000e-06	-0.003100721129340366
3.37025e-06	-0.0031163829684816417
3.37050e-06	-0.005689052730072907
3.37075e-06	-0.012473370782571885
3.37100e-06	-0.01471093434495628
3.37125e-06	-0.013363408861386605
3.37150e-06	-0.010601210864507108
3.37175e-06	-0.006098292471402856
3.37200e-06	-0.0030127153169879598
3.37225e-06	-0.003174994733869734
3.37250e-06	-0.00495642925767636
3.37275e-06	-0.008037117610499429
3.37300e-06	-0.010311032139668221
3.37325e-06	-0.00992253856149113
3.37350e-06	-0.007952699044288782
3.37375e-06	-0.005470337534237301
3.37400e-06	-0.003493194083490328
3.37425e-06	-0.00309347703890916
3.37450e-06	-0.00406162935836414
3.37475e-06	-0.005717305512611181
3.37500e-06	-0.006746094600357619
3.37525e-06	-0.0065430332434161294
3.37550e-06	-0.005376921691034214
3.37575e-06	-0.004053935650386868
3.37600e-06	-0.003194778057212641
3.37625e-06	-0.0031202601683673467
3.37650e-06	-0.0038119462208745162
3.37675e-06	-0.004730420009931501
3.37700e-06	-0.005299971596043275
3.37725e-06	-0.005177316259133583
3.37750e-06	-0.00445105706546028
3.37775e-06	-0.003626247078781538
3.37800e-06	-0.0030917152968348224
3.37825e-06	-0.0030484102798616517
3.37850e-06	-0.0034847650779059568
3.37875e-06	-0.004062885136909371
3.37900e-06	-0.004422172265440667
3.37925e-06	-0.0043476434762588665
3.37950e-06	-0.0038948548023250954
3.37975e-06	-0.003380208816480382
3.38000e-06	-0.003047278256334358
3.38025e-06	-0.0030219300141028555
3.38050e-06	-0.0032969049920334842
3.38075e-06	-0.003660542771300061
3.38100e-06	-0.0038869798979602544
3.38125e-06	-0.0038415818763336573
3.38150e-06	-0.0035591845140578427
3.38175e-06	-0.0032380055833378177
3.38200e-06	-0.003030625691415633
3.38225e-06	-0.0030158844624946527
3.38250e-06	-0.003189227405822417
3.38275e-06	-0.003418068665656062
3.38300e-06	-0.003560939005074905
3.38325e-06	-0.0035335242687509405
3.38350e-06	-0.0033576689423308686
3.38375e-06	-0.003157553304903334
3.38400e-06	-0.0030287597957942805
3.38425e-06	-0.0030206729968582148
3.38450e-06	-0.0031304375483910255
3.38475e-06	-0.00327500290623127
3.38500e-06	-0.0033657619491759836
3.38525e-06	-0.0033499158250125624
3.38550e-06	-0.003241164414718093
3.38575e-06	-0.003117307077165696
3.38600e-06	-0.0030382227132608316
3.38625e-06	-0.0030348480180485034
3.38650e-06	-0.0031052732473385103
3.38675e-06	-0.0031965865654066195
3.38700e-06	-0.0032514260830968605
3.38725e-06	-0.003235250192280333
3.38750e-06	-0.0031563910003634234
3.38775e-06	-0.0030638362863559614
3.38800e-06	-0.0029953456095978305
3.38825e-06	-0.002970545780864121
3.38850e-06	-0.0029884879710851816
3.38875e-06	-0.0030162774172280645
3.38900e-06	-0.0030182346828734946
3.38925e-06	-0.002972977768622203
3.38950e-06	-0.002885981264640613
3.38975e-06	-0.002788185040248019
3.39000e-06	-0.002703492879662745
3.39025e-06	-0.002644448399877503
3.39050e-06	-0.0026107063934687324
3.39075e-06	-0.002581911667347939
3.39100e-06	-0.0025359665313378164
3.39125e-06	-0.002459731117967501
3.39150e-06	-0.0023568887971871116
3.39175e-06	-0.0022470728247047478
3.39200e-06	-0.002145508111971592
3.39225e-06	-0.0020603023729103467
3.39250e-06	-0.001991488986144977
3.39275e-06	-0.001926568262438316
3.39300e-06	-0.0018519499762630726
3.39325e-06	-0.0017596558482484603
3.39350e-06	-0.0016522459881752605
3.39375e-06	-0.0015422713294743883
