Time(s)	Current(A)
1.05000e-05	-0.0033389905413350944
1.05002e-05	-0.003314364928912437
1.05005e-05	-0.0032897393164896135
1.05008e-05	-0.0032650558091086926
1.05010e-05	-0.003240200905068167
1.05013e-05	-0.00321552366000733
1.05015e-05	-0.003191372370171758
1.05017e-05	-0.003167421137751452
1.05020e-05	-0.0031442259554797115
1.05023e-05	-0.003121714947661744
1.05025e-05	-0.0031000330355701673
1.05028e-05	-0.0030793375516077236
1.05030e-05	-0.0030597851343327287
1.05033e-05	-0.0030415332971609134
1.05035e-05	-0.003024766111988789
1.05038e-05	-0.003009773343506857
1.05040e-05	-0.0029969048808852995
1.05043e-05	-0.002986372260551388
1.05045e-05	-0.0029785152060792324
1.05048e-05	-0.0029733148172378836
1.05050e-05	-0.0029693048376231625
1.05053e-05	-0.0029688190364851774
1.05055e-05	-0.0029698840673387395
1.05058e-05	-0.0029755402997752247
1.05060e-05	-0.0029811965322117484
1.05063e-05	-0.002989307848709537
1.05065e-05	-0.003004687383743732
1.05068e-05	-0.0030200669187780307
1.05070e-05	-0.0030354464538123295
1.05073e-05	-0.0030508259888465243
1.05075e-05	-0.0030687817319386963
1.05078e-05	-0.0030943642783069374
1.05080e-05	-0.0031199468246750055
1.05083e-05	-0.0031455293710432467
1.05085e-05	-0.0031711119174114883
1.05087e-05	-0.0031982446471373704
1.05090e-05	-0.003229966658181992
1.05093e-05	-0.0032616886692266134
1.05095e-05	-0.003294124157636608
1.05098e-05	-0.003328671878982827
1.05100e-05	-0.0033632196003290466
1.05102e-05	-0.003398107197843793
1.05105e-05	-0.00343400099075119
1.05108e-05	-0.003469894783658587
1.05110e-05	-0.003505650737026361
1.05113e-05	-0.003540998619684604
1.05115e-05	-0.0035763465023428472
1.05118e-05	-0.0036110975049143735
1.05120e-05	-0.0036440814580473756
1.05123e-05	-0.003677065411180601
1.05125e-05	-0.0037089519389677736
1.05128e-05	-0.0037375895648655037
1.05130e-05	-0.0037662271907634277
1.05133e-05	-0.0037922063007232057
1.05135e-05	-0.003810314936863922
1.05138e-05	-0.0038284235730047605
1.05140e-05	-0.003846532209145599
1.05143e-05	-0.0038646408452863153
1.05145e-05	-0.003882749481427154
1.05148e-05	-0.0039008581175679923
1.05150e-05	-0.003918966753708709
1.05153e-05	-0.003933578661952953
1.05155e-05	-0.003937838589616909
1.05158e-05	-0.003942098517280836
1.05160e-05	-0.003946358444944792
1.05163e-05	-0.003950618372608747
1.05165e-05	-0.003954878300272674
1.05168e-05	-0.00395913822793663
1.05170e-05	-0.003963398155600585
1.05172e-05	-0.003964927301509007
1.05175e-05	-0.003958372032347141
1.05178e-05	-0.003951816763185275
1.05180e-05	-0.0039452614940234535
1.05183e-05	-0.003938706224861587
1.05185e-05	-0.003932150955699721
1.05187e-05	-0.0039255956865379
1.05190e-05	-0.003919040417376033
1.05193e-05	-0.003908003853817168
1.05195e-05	-0.0038954933355842608
1.05198e-05	-0.003882982817351268
1.05200e-05	-0.003870472299118275
1.05203e-05	-0.0038579617808852827
1.05205e-05	-0.003845451262652375
1.05208e-05	-0.003832940744419382
1.05210e-05	-0.003820088210114714
1.05213e-05	-0.0038062231452852197
1.05215e-05	-0.0037923580804556318
1.05218e-05	-0.0037786389679844534
1.05220e-05	-0.0037653519440329335
1.05223e-05	-0.0037520649200813235
1.05225e-05	-0.003739647882596295
1.05228e-05	-0.003729806419555624
1.05230e-05	-0.003719964956514886
1.05233e-05	-0.0037101234934741483
1.05235e-05	-0.003700282030433477
1.05238e-05	-0.0036904405673927393
1.05240e-05	-0.0036805991043520015
1.05243e-05	-0.00367075764131133
1.05245e-05	-0.003660916178270592
1.05248e-05	-0.0036510747152298543
1.05250e-05	-0.0036412332521891834
1.05253e-05	-0.003633019282886559
1.05255e-05	-0.0036253406169562425
1.05257e-05	-0.003617661951025978
1.05260e-05	-0.0036099832850956613
1.05263e-05	-0.0036023046191653446
1.05265e-05	-0.0035946259532350804
1.05268e-05	-0.003586947287304764
1.05270e-05	-0.003579268621374447
1.05272e-05	-0.0035715899554441826
1.05275e-05	-0.003563911289513866
1.05278e-05	-0.00355631737426825
1.05280e-05	-0.003548974361428744
1.05283e-05	-0.0035416313485891883
1.05285e-05	-0.0035342883357496325
1.05288e-05	-0.003526945322910077
1.05290e-05	-0.0035196023100705705
1.05293e-05	-0.0035122592972310148
1.05295e-05	-0.003504916284391459
1.05298e-05	-0.003497573271551953
1.05300e-05	-0.0034902302587123974
1.05303e-05	-0.0034828872458728417
1.05305e-05	-0.003476360332639967
1.05308e-05	-0.003470101844938551
1.05310e-05	-0.003463843357237135
1.05313e-05	-0.003457584869535761
1.05315e-05	-0.003451326381834345
1.05318e-05	-0.003445067894132929
1.05320e-05	-0.0034388094064315556
1.05323e-05	-0.0034325509187301396
1.05325e-05	-0.0034262924310287236
1.05328e-05	-0.00342003394332735
1.05330e-05	-0.003414579537664356
1.05333e-05	-0.003411505597939471
1.05335e-05	-0.0034084316582146065
1.05338e-05	-0.0034053577184897216
1.05340e-05	-0.0034022837787648368
1.05342e-05	-0.0033992098390399723
1.05345e-05	-0.0033961358993150875
1.05348e-05	-0.0033930619595902026
1.05350e-05	-0.003389988019865338
1.05353e-05	-0.0033910274340513496
1.05355e-05	-0.0033934197826108172
1.05357e-05	-0.0033958121311702684
1.05360e-05	-0.003398204479729736
1.05363e-05	-0.0034005968282892034
1.05365e-05	-0.003402989176848655
1.05368e-05	-0.0034053815254081223
1.05370e-05	-0.00340777387396759
1.05373e-05	-0.0034114223193051317
1.05375e-05	-0.0034187894095723753
1.05378e-05	-0.003426156499839669
1.05380e-05	-0.0034335235901069624
1.05383e-05	-0.0034408906803742065
1.05385e-05	-0.0034482577706415
1.05388e-05	-0.0034556248609087935
1.05390e-05	-0.003462991951176037
1.05393e-05	-0.0034703590414433307
1.05395e-05	-0.003479496185447786
1.05398e-05	-0.0034892155226200878
1.05400e-05	-0.003498934859792456
1.05403e-05	-0.0035086541969648237
1.05405e-05	-0.003518373534137126
1.05408e-05	-0.003528092871309494
1.05410e-05	-0.003537812208481862
1.05413e-05	-0.0035475315456541642
1.05415e-05	-0.0035568604231505443
1.05418e-05	-0.003565033353971444
1.05420e-05	-0.003573206284792289
1.05423e-05	-0.0035813792156131887
1.05425e-05	-0.0035895521464340886
1.05427e-05	-0.003597725077254933
1.05430e-05	-0.0036058980080758327
1.05433e-05	-0.0036140709388967325
1.05435e-05	-0.0036222438697175773
1.05438e-05	-0.0036267779811451776
1.05440e-05	-0.0036301152386321125
1.05442e-05	-0.003633452496119025
1.05445e-05	-0.00363678975360596
1.05448e-05	-0.003640127011092895
1.05450e-05	-0.0036434642685798076
1.05453e-05	-0.0036468015260667425
1.05455e-05	-0.0036501387835536775
1.05458e-05	-0.0036520685417393934
1.05460e-05	-0.003649831431389714
1.05463e-05	-0.0036475943210400198
1.05465e-05	-0.0036453572106903255
1.05468e-05	-0.003643120100340646
1.05470e-05	-0.003640882989990952
1.05473e-05	-0.0036386458796412572
1.05475e-05	-0.003636408769291578
1.05478e-05	-0.0036341716589418835
1.05480e-05	-0.0036319345485921893
1.05483e-05	-0.0036266695097076597
1.05485e-05	-0.0036204085466488654
1.05488e-05	-0.003614147583590071
1.05490e-05	-0.0036078866205313193
1.05493e-05	-0.003601625657472525
1.05495e-05	-0.0035953646944137307
1.05498e-05	-0.003589103731354979
1.05500e-05	-0.003582842768296184
1.05503e-05	-0.00357658180523739
1.05505e-05	-0.0035700475596100044
1.05508e-05	-0.003562704267373676
1.05510e-05	-0.003555360975137348
1.05512e-05	-0.0035480176829010696
1.05515e-05	-0.0035406743906647416
1.05518e-05	-0.003533490709325064
1.05520e-05	-0.003526779552286302
1.05523e-05	-0.003520068395247494
1.05525e-05	-0.0035133572382086862
1.05527e-05	-0.0035066460811699236
1.05530e-05	-0.0035002406559131974
1.05533e-05	-0.003494740342397733
1.05535e-05	-0.003489240028882306
1.05538e-05	-0.0034833978991765336
1.05540e-05	-0.003476543830688651
1.05543e-05	-0.0034696897622007684
1.05545e-05	-0.0034620846504686857
1.05548e-05	-0.0034522560928979106
1.05550e-05	-0.003442427535327135
1.05553e-05	-0.0034319712532810756
1.05555e-05	-0.003419656607707579
1.05558e-05	-0.003407341962134082
1.05560e-05	-0.003393721692478537
1.05563e-05	-0.0033762361534729756
1.05565e-05	-0.003358750614467414
1.05568e-05	-0.0033412650754619717
1.05570e-05	-0.0033237795364564103
1.05573e-05	-0.003306293997450849
1.05575e-05	-0.0032846505203046024
1.05578e-05	-0.0032616394444638474
1.05580e-05	-0.0032386283686230925
1.05583e-05	-0.0032156172927824936
1.05585e-05	-0.0031926062169417386
1.05588e-05	-0.0031687690729860314
1.05590e-05	-0.003142486373828415
1.05593e-05	-0.0031162036746706207
1.05595e-05	-0.0030896927779817027
1.05597e-05	-0.003062506307875643
1.05600e-05	-0.003035174924008762
1.05603e-05	-0.0030074145263659113
1.05605e-05	-0.002979642018283212
1.05608e-05	-0.0029518336575277684
1.05610e-05	-0.0029241206517904776
1.05612e-05	-0.0028968090479290984
1.05615e-05	-0.0028699994938402103
1.05618e-05	-0.002843795610555299
1.05620e-05	-0.0028182581684958108
1.05623e-05	-0.002793483500982115
1.05625e-05	-0.002769626503127775
1.05628e-05	-0.0027468607490158687
1.05630e-05	-0.0027253596410110447
1.05633e-05	-0.0027052969860267367
1.05635e-05	-0.0026868504168792292
1.05638e-05	-0.0026702083948717064
1.05640e-05	-0.0026555363378211187
1.05643e-05	-0.0026429270273545273
1.05645e-05	-0.0026324159248362804
1.05648e-05	-0.0026242975776131607
1.05650e-05	-0.002618583447956588
1.05653e-05	-0.0026139719562286836
1.05655e-05	-0.002612624798124498
1.05658e-05	-0.0026126795704257666
1.05660e-05	-0.0026168847246807805
1.05663e-05	-0.002621089878935822
1.05665e-05	-0.0026273589108424785
1.05668e-05	-0.0026397380039380547
1.05670e-05	-0.002652117097033715
1.05673e-05	-0.002664496190129375
1.05675e-05	-0.0026768752832249517
1.05678e-05	-0.0026913963251583677
1.05680e-05	-0.0027122585561894564
1.05682e-05	-0.0027331207872204034
1.05685e-05	-0.0027539830182514917
1.05688e-05	-0.0027748452492825804
1.05690e-05	-0.0027969269154017842
1.05693e-05	-0.0028226186903859848
1.05695e-05	-0.0028483104653701857
1.05697e-05	-0.0028745447410369026
1.05700e-05	-0.0029023850772007414
1.05703e-05	-0.0029302254133645803
1.05705e-05	-0.0029582502671712035
1.05708e-05	-0.002986821381115257
1.05710e-05	-0.003015392495059311
1.05713e-05	-0.00304376427664734
1.05715e-05	-0.00307154593948879
1.05718e-05	-0.003099327602330428
1.05720e-05	-0.0031265151873402655
1.05723e-05	-0.0031519440189173944
1.05725e-05	-0.0031773728504946954
1.05728e-05	-0.003201580070827932
1.05730e-05	-0.003222170739837627
1.05733e-05	-0.0032427614088474613
1.05735e-05	-0.003263352077857296
1.05738e-05	-0.0032831293632714638
1.05740e-05	-0.0033004986457033643
1.05743e-05	-0.0033178679281352648
1.05745e-05	-0.0033352372105670473
1.05748e-05	-0.003352279599300897
1.05750e-05	-0.0033683542269387604
1.05753e-05	-0.0033844288545765147
1.05755e-05	-0.003400503482214378
1.05758e-05	-0.003416578109852241
1.05760e-05	-0.003432627399627599
1.05763e-05	-0.0034486016772580473
1.05765e-05	-0.0034645759548884957
1.05767e-05	-0.003480550232518836
1.05770e-05	-0.0034965245101492843
1.05773e-05	-0.0035125889367456815
1.05775e-05	-0.0035289202472330266
1.05778e-05	-0.0035452515577204828
1.05780e-05	-0.0035615828682079385
1.05782e-05	-0.0035779141786952836
1.05785e-05	-0.0035942454891827393
1.05788e-05	-0.003610576799670195
1.05790e-05	-0.00362690811015754
1.05793e-05	-0.0036432394206449958
1.05795e-05	-0.0036594139682142837
1.05798e-05	-0.0036751244228554005
1.05800e-05	-0.003690834877496411
1.05803e-05	-0.0037065453321375283
1.05805e-05	-0.003722255786778645
1.05808e-05	-0.0037379662414196557
1.05810e-05	-0.003753676696060773
1.05813e-05	-0.0037693871507018897
1.05815e-05	-0.0037850976053429002
1.05818e-05	-0.0037997541746652716
1.05820e-05	-0.003811290741315447
1.05823e-05	-0.003822827307965544
1.05825e-05	-0.0038343638746157196
1.05828e-05	-0.003845900441265895
1.05830e-05	-0.0038574370079159925
1.05833e-05	-0.003868973574566168
1.05835e-05	-0.003880510141216343
1.05838e-05	-0.0038920467078664405
1.05840e-05	-0.003897764506791584
1.05843e-05	-0.0039015684390639235
1.05845e-05	-0.0039053723713362368
1.05848e-05	-0.003909176303608576
1.05850e-05	-0.0039129802358809146
1.05853e-05	-0.003916784168153228
1.05855e-05	-0.003920588100425567
1.05858e-05	-0.0039243920326979065
1.05860e-05	-0.003926102857655886
1.05863e-05	-0.003921617087691571
1.05865e-05	-0.003917131317727254
1.05867e-05	-0.003912645547762968
1.05870e-05	-0.0039081597777986515
1.05873e-05	-0.0039036740078343354
1.05875e-05	-0.0038991882378700497
1.05878e-05	-0.003894702467905733
1.05880e-05	-0.003890216697941417
1.05883e-05	-0.003881355201126416
1.05885e-05	-0.0038710544721409852
1.05888e-05	-0.0038607537431554853
1.05890e-05	-0.0038504530141699853
1.05893e-05	-0.0038401522851845547
1.05895e-05	-0.0038298515561990547
1.05898e-05	-0.0038195508272135547
1.05900e-05	-0.003809250098228124
1.05903e-05	-0.003798482910127002
1.05905e-05	-0.003786334780796562
1.05908e-05	-0.0037741866514662045
1.05910e-05	-0.0037620385221357644
1.05913e-05	-0.0037498903928053244
1.05915e-05	-0.0037377422634749667
1.05918e-05	-0.003726377741397423
1.05920e-05	-0.0037152709577039362
1.05923e-05	-0.0037041641740105245
1.05925e-05	-0.0036930573903170374
1.05928e-05	-0.0036819506066235502
1.05930e-05	-0.0036714060534040333
1.05933e-05	-0.0036625259702652894
1.05935e-05	-0.0036536458871265455
1.05938e-05	-0.0036446624929202054
1.05940e-05	-0.003635373248730347
1.05943e-05	-0.0036260840045404885
1.05945e-05	-0.0036160479875674716
1.05948e-05	-0.0036038011673514762
1.05950e-05	-0.003591554347135481
1.05952e-05	-0.003579307526919568
1.05955e-05	-0.0035670607067035728
1.05958e-05	-0.0035548138864875773
1.05960e-05	-0.0035425670662716647
1.05963e-05	-0.0035266364634857594
1.05965e-05	-0.0035094942177964954
1.05968e-05	-0.003492351972107232
1.05970e-05	-0.0034752097264180845
1.05973e-05	-0.0034580674807288205
1.05975e-05	-0.003440925235039557
1.05978e-05	-0.0034226857139932226
1.05980e-05	-0.0034011977350853
1.05983e-05	-0.0033797097561773766
1.05985e-05	-0.0033582217772695996
1.05988e-05	-0.0033367337983616764
1.05990e-05	-0.0033152458194537536
1.05993e-05	-0.0032932367388937385
1.05995e-05	-0.003269684949160468
1.05998e-05	-0.003246133159427197
1.06000e-05	-0.0032225813696940856
1.06003e-05	-0.003199029579960815
1.06005e-05	-0.0031754777902275443
1.06008e-05	-0.0031519419419878923
1.06010e-05	-0.003128453288164159
1.06013e-05	-0.0031051820343753842
1.06015e-05	-0.003082554388272036
1.06018e-05	-0.00306021498239876
1.06020e-05	-0.0030387289049410935
1.06023e-05	-0.0030176176338445257
1.06025e-05	-0.0029976159681554745
1.06028e-05	-0.0029782937902536745
1.06030e-05	-0.002960983219949199
1.06033e-05	-0.002943672649644607
1.06035e-05	-0.0029273292292701096
1.06037e-05	-0.0029138490334945726
1.06040e-05	-0.0029003688377189445
1.06043e-05	-0.0028877654730739433
1.06045e-05	-0.0028777579463484804
1.06048e-05	-0.0028677504196229497
1.06050e-05	-0.002859312505024749
1.06053e-05	-0.002855521390177167
1.06055e-05	-0.0028517302753296105
1.06058e-05	-0.002847939160482028
1.06060e-05	-0.0028441480456344458
1.06063e-05	-0.002840356930786889
1.06065e-05	-0.002836565815939307
1.06068e-05	-0.00283464539454689
1.06070e-05	-0.0028382631170879666
1.06073e-05	-0.0028418808396290674
1.06075e-05	-0.002845498562170168
1.06078e-05	-0.0028491162847112447
1.06080e-05	-0.0028527340072523454
1.06083e-05	-0.002856351729793446
1.06085e-05	-0.0028612616010115365
1.06088e-05	-0.002869996847967885
1.06090e-05	-0.002878732094924233
1.06093e-05	-0.0028874673418805225
1.06095e-05	-0.002896202588836871
1.06098e-05	-0.002904937835793219
1.06100e-05	-0.0029136730827495085
1.06103e-05	-0.002922408329705857
1.06105e-05	-0.0029323954666832814
1.06108e-05	-0.0029427943661986806
1.06110e-05	-0.0029531932657141506
1.06113e-05	-0.0029635921652296205
1.06115e-05	-0.0029739910647450197
1.06118e-05	-0.0029843899642604896
1.06120e-05	-0.0029947888637759596
1.06122e-05	-0.0030044507072426946
1.06125e-05	-0.003011930513628984
1.06128e-05	-0.003019410320015273
1.06130e-05	-0.0030268901264015116
1.06133e-05	-0.003034369932787801
1.06135e-05	-0.0030418497391740897
1.06138e-05	-0.003049329545560379
1.06140e-05	-0.0030568093519466174
1.06143e-05	-0.0030642891583329067
1.06145e-05	-0.003071768964719196
1.06148e-05	-0.003079248771105434
1.06150e-05	-0.0030854194708940345
1.06153e-05	-0.003091159588885289
1.06155e-05	-0.0030968997068765046
1.06158e-05	-0.003102639824867759
1.06160e-05	-0.003108379942859013
1.06163e-05	-0.003114120060850229
1.06165e-05	-0.003119860178841483
1.06168e-05	-0.0031256002968327377
1.06170e-05	-0.0031313404148239532
1.06173e-05	-0.0031370805328152077
1.06175e-05	-0.0031428640819483665
1.06178e-05	-0.0031487762079546776
1.06180e-05	-0.003154688333961028
1.06183e-05	-0.0031606004599673792
1.06185e-05	-0.0031665125859736904
1.06188e-05	-0.0031724247119800414
1.06190e-05	-0.0031783368379863924
1.06193e-05	-0.00318392225788089
1.06195e-05	-0.0031888386227154524
1.06198e-05	-0.003193754987550015
1.06200e-05	-0.003198671352384544
1.06203e-05	-0.003203587717219106
1.06205e-05	-0.0032085040820536686
1.06207e-05	-0.0032134204468881977
1.06210e-05	-0.003222254175484661
1.06213e-05	-0.0032273853362355183
1.06215e-05	-0.07781730300453943
1.06218e-05	-0.03633042702940123
1.06220e-05	-0.01562689167480431
1.06222e-05	0.0018085055046813889
1.06225e-05	0.018143211274978945
1.06228e-05	0.019056125352008055
1.06230e-05	0.008919821691010505
1.06233e-05	-0.004799165037215367
1.06235e-05	-0.019522643406824775
1.06238e-05	-0.02000338241764122
1.06240e-05	-0.010034468439345707
1.06243e-05	0.0008430330308389911
1.06245e-05	0.01094225955939175
1.06248e-05	0.01144245513296933
1.06250e-05	0.005048552870760485
1.06253e-05	-0.003576241397631026
1.06255e-05	-0.012822707866046643
1.06258e-05	-0.013142870695356345
1.06260e-05	-0.006914525986091752
1.06263e-05	-0.00011505382882206951
1.06265e-05	0.006198581116634744
1.06268e-05	0.0065011514154327005
1.06270e-05	0.0024873192396819887
1.06273e-05	-0.002921784299743513
1.06275e-05	-0.008718212223596963
1.06278e-05	-0.008921504368935955
1.06280e-05	-0.00502169152209413
1.06283e-05	-0.0007633342698931964
1.06285e-05	0.003191350452286526
1.06288e-05	0.003381423844299835
1.06290e-05	0.000868587467408373
1.06292e-05	-0.002517328722209229
1.06295e-05	-0.0061450207016500065
1.06298e-05	-0.0062686068985567675
1.06300e-05	-0.003821838278684455
1.06303e-05	-0.0011505487686822272
1.06305e-05	0.0013303317628138513
1.06307e-05	0.0014528770802211502
1.06310e-05	-0.00011779281682224464
1.06313e-05	-0.00223548486616422
1.06315e-05	-0.004504829566630457
1.06318e-05	-0.004579615691262152
1.06320e-05	-0.0030450249285190467
1.06323e-05	-0.0013706721071144274
1.06325e-05	0.00018342430510298428
1.06328e-05	0.00025924560253564916
1.06330e-05	-0.0007265658201904371
1.06333e-05	-0.002056075150247396
1.06335e-05	-0.003481650276896872
1.06338e-05	-0.0035334472461874132
1.06340e-05	-0.00257762122305417
1.06343e-05	-0.0015344293226706436
1.06345e-05	-0.0005666612279181664
1.06348e-05	-0.00052492501474789
1.06350e-05	-0.0011481615082369456
1.06353e-05	-0.001986614253242465
1.06355e-05	-0.002885150479618252
1.06358e-05	-0.0029230942977999225
1.06360e-05	-0.002329868704582647
1.06363e-05	-0.001681947550538842
1.06365e-05	-0.001081296647516588
1.06368e-05	-0.0010607010079202682
1.06370e-05	-0.0014565816048938691
1.06373e-05	-0.001987179455683795
1.06375e-05	-0.0025553042980900006
1.06377e-05	-0.002584261289873918
1.06380e-05	-0.002217795378916425
1.06383e-05	-0.0018170200173485201
1.06385e-05	-0.0014457983050874272
1.06388e-05	-0.0014378389894471176
1.06390e-05	-0.0016906385311161846
1.06392e-05	-0.0020276782473180465
1.06395e-05	-0.0023880634299655356
1.06398e-05	-0.0024105574707739413
1.06400e-05	-0.0021852185935394815
1.06403e-05	-0.0019382495363546306
1.06405e-05	-0.0017096434164730959
1.06408e-05	-0.0017084127050363074
1.06410e-05	-0.0018703204943139964
1.06413e-05	-0.0020847745037749347
1.06415e-05	-0.0023136157873502594
1.06418e-05	-0.0023305635331265988
1.06420e-05	-0.002192035131075016
1.06423e-05	-0.0020397195889370334
1.06425e-05	-0.0018986563676527655
1.06428e-05	-0.0018997513715101847
1.06430e-05	-0.002002743075177531
1.06433e-05	-0.002138338191261569
1.06435e-05	-0.0022826241690315943
1.06438e-05	-0.0022938808262401534
1.06440e-05	-0.002207501368524394
1.06443e-05	-0.0021122808841804344
1.06445e-05	-0.002023921841678224
