Time(s)	Current(A)
5.00000e-06	0.007232612537347836
5.00025e-06	0.007282505126450423
5.00050e-06	0.007334015646730005
5.00075e-06	0.007385526167009412
5.00100e-06	0.00743703668728882
5.00125e-06	0.007488547207568402
5.00150e-06	0.007540057727847809
5.00175e-06	0.007591568248127217
5.00200e-06	0.0076430787684067985
5.00225e-06	0.007694589288686206
5.00250e-06	0.007762012548271752
5.00275e-06	0.007830451228820413
5.00300e-06	0.007898889909368842
5.00325e-06	0.00796732858991727
5.00350e-06	0.008035767270465932
5.00375e-06	0.00810420595101436
5.00400e-06	0.008172644631563022
5.00425e-06	0.008241083312111451
5.00450e-06	0.008309521992659882
5.00475e-06	0.008374210343099557
5.00500e-06	0.008434125853546947
5.00525e-06	0.008494041363994339
5.00550e-06	0.008553956874441934
5.00575e-06	0.008613872384889323
5.00600e-06	0.008673787895336715
5.00625e-06	0.00873370340578431
5.00650e-06	0.0087936189162317
5.00675e-06	0.008853534426679091
5.00700e-06	0.008913449937126686
5.00725e-06	0.008938173533450569
5.00750e-06	0.008960651469450201
5.00775e-06	0.00898312940544991
5.00800e-06	0.009005607341449541
5.00825e-06	0.00902808527744925
5.00850e-06	0.009050563213448881
5.00875e-06	0.009073041149448513
5.00900e-06	0.009095519085448221
5.00925e-06	0.009117997021447853
5.00950e-06	0.009140474957447485
5.00975e-06	0.009162952893447193
5.01000e-06	0.009185430829446825
5.01025e-06	0.009172042637309976
5.01050e-06	0.009156365762021635
5.01075e-06	0.009140688886733346
5.01100e-06	0.009125012011445058
5.01125e-06	0.009109335136156717
5.01150e-06	0.00909365826086843
5.01175e-06	0.009077981385580141
5.01200e-06	0.0090623045102918
5.01225e-06	0.009046627635003513
5.01250e-06	0.009030950759715172
5.01275e-06	0.009015273884426885
5.01300e-06	0.008999597009138596
5.01325e-06	0.00896827979772703
5.01350e-06	0.008935964547898292
5.01375e-06	0.008903649298069555
5.01400e-06	0.008871334048240706
5.01425e-06	0.008839018798411969
5.01450e-06	0.008806703548583232
5.01475e-06	0.008774388298754385
5.01500e-06	0.008742073048925646
5.01525e-06	0.008711396744892677
5.01550e-06	0.008682806237525507
5.01575e-06	0.008654215730158435
5.01600e-06	0.008625625222791363
5.01625e-06	0.008597034715424194
5.01650e-06	0.008568444208057122
5.01675e-06	0.008539853700689952
5.01700e-06	0.00851126319332288
5.01725e-06	0.008482672685955808
5.01750e-06	0.008460287001031767
5.01775e-06	0.008438297257161729
5.01800e-06	0.00841630751329169
5.01825e-06	0.008394317769421577
5.01850e-06	0.008372328025551538
5.01875e-06	0.008350338281681502
5.01900e-06	0.008328348537811388
5.01925e-06	0.00830635879394135
5.01950e-06	0.008284369050071311
5.01975e-06	0.008262379306201198
5.02000e-06	0.00824038956233116
5.02025e-06	0.008218399818461123
5.02050e-06	0.00819641007459101
5.02075e-06	0.008172798039703132
5.02100e-06	0.008149082483462054
5.02125e-06	0.008125366927221054
5.02150e-06	0.008101651370980055
5.02175e-06	0.008077935814738976
5.02200e-06	0.008054220258497977
5.02225e-06	0.008030504702256979
5.02250e-06	0.0080067891460159
5.02275e-06	0.007983073589774901
5.02300e-06	0.007959358033533903
5.02325e-06	0.007935642477292823
5.02350e-06	0.007911926921051825
5.02375e-06	0.007888211364810825
5.02400e-06	0.007865973549775324
5.02425e-06	0.007843830032105441
5.02450e-06	0.00782168651443556
5.02475e-06	0.007799542996765602
5.02500e-06	0.00777739947909572
5.02525e-06	0.007755255961425762
5.02550e-06	0.00773311244375588
5.02575e-06	0.007710968926085997
5.02600e-06	0.0076888254084160395
5.02625e-06	0.0076692065835915245
5.02650e-06	0.007652800797252922
5.02675e-06	0.007636395010914264
5.02700e-06	0.007619989224575662
5.02725e-06	0.007603583438237059
5.02750e-06	0.007587177651898401
5.02775e-06	0.007570771865559799
5.02800e-06	0.007554366079221196
5.02825e-06	0.0075379602928825375
5.02850e-06	0.007521554506543935
5.02875e-06	0.007502770257478798
5.02900e-06	0.007483834234362622
5.02925e-06	0.00746489821124651
5.02950e-06	0.007445962188130335
5.02975e-06	0.0074270261650142225
5.03000e-06	0.0074080901418981104
5.03025e-06	0.007389154118781935
5.03050e-06	0.007370218095665823
5.03075e-06	0.007351282072549712
5.03100e-06	0.007332346049433535
5.03125e-06	0.007313410026317424
5.03150e-06	0.007294474003201312
5.03175e-06	0.007275537980085136
5.03200e-06	0.0072566019569690245
5.03225e-06	0.007237665933852912
5.03250e-06	0.007216021827321708
5.03275e-06	0.007194204913041452
5.03300e-06	0.007172387998761197
5.03325e-06	0.007150571084480867
5.03350e-06	0.007128754170200612
5.03375e-06	0.007106937255920282
5.03400e-06	0.0070851203416400265
5.03425e-06	0.007063303427359771
5.03450e-06	0.007041486513079441
5.03475e-06	0.007019669598799186
5.03500e-06	0.00699785268451893
5.03525e-06	0.0069760357702386006
5.03550e-06	0.006954218855958345
5.03575e-06	0.006932401941678089
5.03600e-06	0.00691058502739776
5.03625e-06	0.006897568034981232
5.03650e-06	0.006885112581652003
5.03675e-06	0.006872657128322732
5.03700e-06	0.006860201674993503
5.03725e-06	0.006847746221664274
5.03750e-06	0.006835290768335002
5.03775e-06	0.006822835315005773
5.03800e-06	0.006810379861676502
5.03825e-06	0.006808509746719231
5.03850e-06	0.0068201110128964905
5.03875e-06	0.006831712279073789
5.03900e-06	0.006843313545251048
5.03925e-06	0.0068549148114283075
5.03950e-06	0.0068665160776056056
5.03975e-06	0.0068781173437828655
5.04000e-06	0.0068897186099601245
5.04025e-06	0.0069013198761374225
5.04050e-06	0.006939846059112719
5.04075e-06	0.006980090370206996
5.04100e-06	0.00702033468130141
5.04125e-06	0.007060578992395688
5.04150e-06	0.007100823303489965
5.04175e-06	0.007141067614584379
5.04200e-06	0.007181311925678656
5.04225e-06	0.00722155623677307
5.04250e-06	0.007261800547867348
5.04275e-06	0.0073020448589616255
5.04300e-06	0.0073482725533243485
5.04325e-06	0.00740211497228452
5.04350e-06	0.00745595739124469
5.04375e-06	0.007509799810205045
5.04400e-06	0.007563642229165216
5.04425e-06	0.007617484648125387
5.04450e-06	0.007671327067085741
5.04475e-06	0.0077251694860459115
5.04500e-06	0.007779011905006083
5.04525e-06	0.007832854323966437
5.04550e-06	0.007886696742926608
5.04575e-06	0.007927648682868596
5.04600e-06	0.00796777805780058
5.04625e-06	0.008007907432732428
5.04650e-06	0.008048036807664413
5.04675e-06	0.00808816618259626
5.04700e-06	0.00812829555752811
5.04725e-06	0.008168424932460094
5.04750e-06	0.008208554307391942
5.04775e-06	0.008233353042644794
5.04800e-06	0.008238641311358201
5.04825e-06	0.00824392958007159
5.04850e-06	0.00824921784878498
5.04875e-06	0.008254506117498386
5.04900e-06	0.008259794386211775
5.04925e-06	0.008265082654925164
5.04950e-06	0.008270370923638571
5.04975e-06	0.00827565919235196
5.05000e-06	0.008241950941441247
5.05025e-06	0.008205754251388378
5.05050e-06	0.00816955756133563
5.05075e-06	0.008133360871282759
5.05100e-06	0.008097164181230012
5.05125e-06	0.008060967491177264
5.05150e-06	0.008024770801124393
5.05175e-06	0.007988574111071647
5.05200e-06	0.007952377421018899
5.05225e-06	0.007916180730966027
5.05250e-06	0.007855366906074685
5.05275e-06	0.007792982216847938
5.05300e-06	0.007730597527620981
5.05325e-06	0.007668212838394234
5.05350e-06	0.007605828149167488
5.05375e-06	0.00754344345994053
5.05400e-06	0.007481058770713783
5.05425e-06	0.007418674081487037
5.05450e-06	0.007356289392260079
5.05475e-06	0.007293904703033332
5.05500e-06	0.007234241447956213
5.05525e-06	0.007174751852562859
5.05550e-06	0.007115262257169506
5.05575e-06	0.007055772661775951
5.05600e-06	0.006996283066382598
5.05625e-06	0.006936793470989245
5.05650e-06	0.00687730387559569
5.05675e-06	0.006828127251610272
5.05700e-06	0.006792075382217886
5.05725e-06	0.006756023512825377
5.05750e-06	0.006719971643432989
5.05775e-06	0.006683919774040602
5.05800e-06	0.006647867904648093
5.05825e-06	0.006611816035255707
5.05850e-06	0.00657576416586332
5.05875e-06	0.006573505135162708
5.05900e-06	0.0065734024872180705
5.05925e-06	0.006573299839273433
5.05950e-06	0.006573197191328797
5.05975e-06	0.0065730945433841595
5.06000e-06	0.006572991895439522
5.06025e-06	0.006572889247494885
5.06050e-06	0.006572786599550249
5.06075e-06	0.006572683951605611
5.06100e-06	0.006572581303660974
5.06125e-06	0.006572478655716337
5.06150e-06	0.0065858117097196784
5.06175e-06	0.006616243646660104
5.06200e-06	0.00664667558360053
5.06225e-06	0.006677107520541059
5.06250e-06	0.006707539457481484
5.06275e-06	0.00673797139442191
5.06300e-06	0.006768403331362439
5.06325e-06	0.006798835268302865
5.06350e-06	0.0068292672052433934
5.06375e-06	0.006859699142183819
5.06400e-06	0.006890131079124245
5.06425e-06	0.006920563016064774
5.06450e-06	0.006956797652599138
5.06475e-06	0.006993402569992409
5.06500e-06	0.007030007487385805
5.06525e-06	0.0070666124047790765
5.06550e-06	0.007103217322172347
5.06575e-06	0.007139822239565743
5.06600e-06	0.007172695012198909
5.06625e-06	0.0072008180883443825
5.06650e-06	0.00722894116448995
5.06675e-06	0.007257064240635424
5.06700e-06	0.007285187316780896
5.06725e-06	0.007313310392926465
5.06750e-06	0.007341433469071937
5.06775e-06	0.007367862296821921
5.06800e-06	0.007394183011487414
5.06825e-06	0.007420503726152905
5.06850e-06	0.007446824440818487
5.06875e-06	0.007473145155483979
5.06900e-06	0.007499465870149471
5.06925e-06	0.007525786584815052
5.06950e-06	0.007552107299480543
5.06975e-06	0.007578428014146036
5.07000e-06	0.007604748728811617
5.07025e-06	0.007631069443477109
5.07050e-06	0.007660415687277681
5.07075e-06	0.00769361235651168
5.07100e-06	0.0077268090257455666
5.07125e-06	0.007760005694979454
5.07150e-06	0.007793202364213453
5.07175e-06	0.00782639903344734
5.07200e-06	0.007859595702681339
5.07225e-06	0.007892792371915225
5.07250e-06	0.007925989041149113
5.07275e-06	0.007959185710383112
5.07300e-06	0.007992382379616999
5.07325e-06	0.008025579048850885
5.07350e-06	0.00805974893289125
5.07375e-06	0.008093980919545688
5.07400e-06	0.008128212906200126
5.07425e-06	0.00816244489285468
5.07450e-06	0.00819667687950912
5.07475e-06	0.008230908866163558
5.07500e-06	0.008265140852818112
5.07525e-06	0.00829937283947255
5.07550e-06	0.008333604826126988
5.07575e-06	0.008363210466705842
5.07600e-06	0.008386928409696591
5.07625e-06	0.008410646352687423
5.07650e-06	0.008434364295678173
5.07675e-06	0.008458082238668924
5.07700e-06	0.008481800181659754
5.07725e-06	0.008505518124650505
5.07750e-06	0.008529236067641256
5.07775e-06	0.008552954010632087
5.07800e-06	0.008576671953622838
5.07825e-06	0.008589474294607977
5.07850e-06	0.008601580091094158
5.07875e-06	0.008613685887580297
5.07900e-06	0.008625791684066436
5.07925e-06	0.008637897480552617
5.07950e-06	0.008650003277038756
5.07975e-06	0.008662109073524896
5.08000e-06	0.008674214870011075
5.08025e-06	0.008686320666497214
5.08050e-06	0.008698426462983395
5.08075e-06	0.008710532259469534
5.08100e-06	0.008722638055955674
5.08125e-06	0.008734743852441855
5.08150e-06	0.008746849648927994
5.08175e-06	0.008758955445414133
5.08200e-06	0.008771061241900312
5.08225e-06	0.008783167038386452
5.08250e-06	0.008795272834872591
5.08275e-06	0.008801312145142421
5.08300e-06	0.008806964341847762
5.08325e-06	0.008812616538553104
5.08350e-06	0.008818268735258464
5.08375e-06	0.008823920931963805
5.08400e-06	0.008829573128669147
5.08425e-06	0.008835225325374509
5.08450e-06	0.00884087752207985
5.08475e-06	0.008846529718785192
5.08500e-06	0.008852181915490552
5.08525e-06	0.008857834112195893
5.08550e-06	0.008863486308901254
5.08575e-06	0.008869138505606595
5.08600e-06	0.008874790702311936
5.08625e-06	0.008880442899017297
5.08650e-06	0.008886095095722638
5.08675e-06	0.00889174729242798
5.08700e-06	0.00889739948913334
5.08725e-06	0.008891395662924548
5.08750e-06	0.008884648044606945
5.08775e-06	0.008877900426289317
5.08800e-06	0.008871152807971714
5.08825e-06	0.00886440518965411
5.08850e-06	0.008857657571336483
5.08875e-06	0.00885090995301888
5.08900e-06	0.008844162334701275
5.08925e-06	0.008837414716383649
5.08950e-06	0.008830667098066044
5.08975e-06	0.008803848029255592
5.09000e-06	0.008775748164534294
5.09025e-06	0.008747648299812996
5.09050e-06	0.008719548435091602
5.09075e-06	0.008691448570370304
5.09100e-06	0.008663348705649006
5.09125e-06	0.008635248840927612
5.09150e-06	0.008607148976206314
5.09175e-06	0.008579049111485016
5.09200e-06	0.008550949246763622
5.09225e-06	0.008509292302079132
5.09250e-06	0.008466770255364112
5.09275e-06	0.008424248208648948
5.09300e-06	0.008381726161933925
5.09325e-06	0.008339204115218905
5.09350e-06	0.008296682068503739
5.09375e-06	0.008254160021788718
5.09400e-06	0.008211637975073554
5.09425e-06	0.008169115928358532
5.09450e-06	0.008126593881643511
5.09475e-06	0.008087519738718798
5.09500e-06	0.008048665612831641
5.09525e-06	0.008009811486944487
5.09550e-06	0.007970957361057199
5.09575e-06	0.007932103235170044
5.09600e-06	0.007893249109282888
5.09625e-06	0.007854394983395602
5.09650e-06	0.007815540857508445
5.09675e-06	0.00777668673162129
5.09700e-06	0.007737832605734003
5.09725e-06	0.007709759855510971
5.09750e-06	0.007682375084557838
5.09775e-06	0.007654990313604613
5.09800e-06	0.00762760554265148
5.09825e-06	0.007600220771698254
5.09850e-06	0.007572836000745121
5.09875e-06	0.007545451229791988
5.09900e-06	0.0075180664588387625
5.09925e-06	0.0074906816878856294
5.09950e-06	0.007463296916932496
5.09975e-06	0.0074359121459792715
5.10000e-06	0.007408051209062252
5.10025e-06	0.0073795842817696924
5.10050e-06	0.007351117354477038
5.10075e-06	0.00732265042718448
5.10100e-06	0.007294183499891921
5.10125e-06	0.007265716572599266
5.10150e-06	0.007237249645306708
5.10175e-06	0.007208782718014149
5.10200e-06	0.007180315790721494
5.10225e-06	0.007151848863428936
5.10250e-06	0.007123381936136281
5.10275e-06	0.007094915008843722
5.10300e-06	0.0070670039014619716
5.10325e-06	0.007039128261963647
5.10350e-06	0.007011252622465417
5.10375e-06	0.006983376982967187
5.10400e-06	0.006955501343468863
5.10425e-06	0.006927625703970632
5.10450e-06	0.006899750064472403
5.10475e-06	0.0068718744249740785
5.10500e-06	0.006843998785475848
5.10525e-06	0.006816123145977618
5.10550e-06	0.006788247506479293
5.10575e-06	0.006760371866981064
5.10600e-06	0.006737086098201561
5.10625e-06	0.006719641606815086
5.10650e-06	0.006702197115428671
5.10675e-06	0.006684752624042196
5.10700e-06	0.00666730813265578
5.10725e-06	0.006649863641269364
5.10750e-06	0.006632419149882889
5.10775e-06	0.006614974658496473
5.10800e-06	0.006597530167110057
5.10825e-06	0.0065800856757235815
5.10850e-06	0.0065626411843371655
5.10875e-06	0.00654519669295075
5.10900e-06	0.006527752201564275
5.10925e-06	0.006517472900563426
5.10950e-06	0.0065076508234455654
5.10975e-06	0.006497828746327672
5.11000e-06	0.006488006669209812
5.11025e-06	0.006482575342263174
5.11050e-06	0.006477424197102959
5.11075e-06	0.006472273051942761
5.11100e-06	0.006467121906782545
5.11125e-06	0.006461970761622347
5.11150e-06	0.006456819616462149
5.11175e-06	0.006451668471301933
5.11200e-06	0.006446517326141735
5.11225e-06	0.006441366180981537
5.11250e-06	0.006436215035821321
5.11275e-06	0.006431063890661123
5.11300e-06	0.006425912745500925
5.11325e-06	0.006420761600340709
5.11350e-06	0.006415610455180511
5.11375e-06	0.006413866154830845
5.11400e-06	0.006412339251469758
5.11425e-06	0.006410812348108676
5.11450e-06	0.006409285444747594
5.11475e-06	0.006407758541386506
5.11500e-06	0.006406231638025424
5.11525e-06	0.006404704734664337
5.11550e-06	0.006403177831303255
5.11575e-06	0.006401650927942173
5.11600e-06	0.0064001240245810855
5.11625e-06	0.0063985971212200034
5.11650e-06	0.006397070217858921
5.11675e-06	0.006395543314497834
5.11700e-06	0.006394016411136752
5.11725e-06	0.006402227324393054
5.11750e-06	0.006411059625509735
5.11775e-06	0.006419891926626388
5.11800e-06	0.00642872422774304
5.11825e-06	0.006437556528859721
5.11850e-06	0.006446388829976373
5.11875e-06	0.006455221131093025
5.11900e-06	0.006464053432209707
5.11925e-06	0.006472885733326359
5.11950e-06	0.00650407878815673
5.11975e-06	0.006536698723513638
5.12000e-06	0.006569318658870547
5.12025e-06	0.0066019385942275655
5.12050e-06	0.006634558529584474
5.12075e-06	0.0066671784649413824
5.12100e-06	0.006699798400298401
5.12125e-06	0.0067324183356553095
5.12150e-06	0.006765038271012218
5.12175e-06	0.006816245283779125
5.12200e-06	0.006868638371896367
5.12225e-06	0.006921031460013609
5.12250e-06	0.006973424548131028
5.12275e-06	0.0070258176362482695
5.12300e-06	0.007078210724365512
5.12325e-06	0.007130603812482931
5.12350e-06	0.007182996900600173
5.12375e-06	0.007235389988717592
5.12400e-06	0.0072877830768348344
5.12425e-06	0.0073400501427728386
5.12450e-06	0.007392309167005642
5.12475e-06	0.007444568191238268
5.12500e-06	0.007496827215470894
5.12525e-06	0.007549086239703696
5.12550e-06	0.007601345263936322
5.12575e-06	0.007653604288168948
5.12600e-06	0.0077058633124017515
5.12625e-06	0.007758122336634378
5.12650e-06	0.007810381360867004
5.12675e-06	0.007837793759236452
5.12700e-06	0.007863620649038885
5.12725e-06	0.007889447538841318
5.12750e-06	0.007915274428643839
5.12775e-06	0.007941101318446272
5.12800e-06	0.007966928208248793
5.12825e-06	0.007992755098051226
5.12850e-06	0.008018581987853659
5.12875e-06	0.00802687478513989
5.12900e-06	0.008012852902023845
5.12925e-06	0.007998831018907799
5.12950e-06	0.007984809135791705
5.12975e-06	0.007970787252675658
5.13000e-06	0.007956765369559613
5.13025e-06	0.00794274348644352
5.13050e-06	0.007928721603327473
5.13075e-06	0.007914699720211426
5.13100e-06	0.007867148033118372
5.13125e-06	0.00781745674800819
5.13150e-06	0.0077677654628980075
5.13175e-06	0.007718074177787657
5.13200e-06	0.007668382892677475
5.13225e-06	0.007618691607567125
5.13250e-06	0.007569000322456942
5.13275e-06	0.007519309037346759
5.13300e-06	0.007469617752236409
5.13325e-06	0.007404587810673552
5.13350e-06	0.007338579081434247
5.13375e-06	0.007272570352194719
5.13400e-06	0.007206561622955414
5.13425e-06	0.0071405528937161095
5.13450e-06	0.00707454416447658
5.13475e-06	0.007008535435237276
5.13500e-06	0.006942526705997971
5.13525e-06	0.006876517976758443
5.13550e-06	0.006820092886256133
5.13575e-06	0.006764279345241132
5.13600e-06	0.006708465804225941
5.13625e-06	0.006652652263210939
5.13650e-06	0.006596838722195748
5.13675e-06	0.006541025181180746
5.13700e-06	0.0064852116401657445
5.13725e-06	0.006440325629039199
5.13750e-06	0.006409346487446227
5.13775e-06	0.006378367345853255
5.13800e-06	0.006347388204260177
5.13825e-06	0.006316409062667205
5.13850e-06	0.006285429921074233
5.13875e-06	0.006254450779481155
5.13900e-06	0.006223471637888183
5.13925e-06	0.006219395670219466
5.13950e-06	0.006217036443202896
5.13975e-06	0.006214677216186334
5.14000e-06	0.0062123179891697715
5.14025e-06	0.0062099587621532015
5.14050e-06	0.006207599535136639
5.14075e-06	0.006205240308120068
5.14100e-06	0.006202881081103506
5.14125e-06	0.006200521854086944
5.14150e-06	0.006198162627070374
5.14175e-06	0.006215058680401143
5.14200e-06	0.006234698486541608
5.14225e-06	0.006254338292682138
5.14250e-06	0.0062739780988226015
5.14275e-06	0.006293617904963066
5.14300e-06	0.006313257711103596
5.14325e-06	0.00633289751724406
5.14350e-06	0.006352537323384524
5.14375e-06	0.0063721771295250544
5.14400e-06	0.006391816935665519
5.14425e-06	0.0064021886032474915
5.14450e-06	-0.029524870163233345
5.14475e-06	-0.07414132043034624
5.14500e-06	-0.01615476735308993
5.14525e-06	0.007138618036105272
5.14550e-06	0.027166372992802737
5.14575e-06	0.03786151361564036
5.14600e-06	0.02668330215240658
5.14625e-06	0.00968045702987291
5.14650e-06	-0.008084509581840999
5.14675e-06	-0.018175876455253235
5.14700e-06	-0.0072910150226085935
5.14725e-06	0.00788447864485669
5.14750e-06	0.020354394892005464
5.14775e-06	0.027005954141646808
5.14800e-06	0.019966734047790046
5.14825e-06	0.009285258692309504
5.14850e-06	-0.0018687033530817168
5.14875e-06	-0.00821180102867776
5.14900e-06	-0.0014124020074042479
5.14925e-06	0.008076719081327058
5.14950e-06	0.01587291002747296
5.14975e-06	0.020026395576726433
5.15000e-06	0.015606286886994553
5.15025e-06	0.008907293024589445
5.15050e-06	0.0019149062039723447
5.15075e-06	-0.002061671848804833
5.15100e-06	0.002195811762979202
