Time(s)	Current(A)
7.00000e-06	-0.004092688449411304
7.00025e-06	-0.004080776301312368
7.00050e-06	-0.004068100883232774
7.00075e-06	-0.004054847644457111
7.00100e-06	-0.004041165697916137
7.00125e-06	-0.004027145020840003
7.00150e-06	-0.004012857623155786
7.00175e-06	-0.0039983756823631185
7.00200e-06	-0.003983770779783717
7.00225e-06	-0.0039691290660386945
7.00250e-06	-0.003954582927657759
7.00275e-06	-0.003940298552598756
7.00300e-06	-0.003926418463705599
7.00325e-06	-0.0039130485480870555
7.00350e-06	-0.003900283800645693
7.00375e-06	-0.0038882189181953268
7.00400e-06	-0.003876948429977235
7.00425e-06	-0.003866636916120478
7.00450e-06	-0.0038576470685997657
7.00475e-06	-0.0038504302155166247
7.00500e-06	-0.0038458864207317404
7.00525e-06	-0.0038424537985523514
7.00550e-06	-0.0038428124943679877
7.00575e-06	-0.0038453025016865526
7.00600e-06	-0.003847792509005109
7.00625e-06	-0.0038502825163236653
7.00650e-06	-0.0038581770614171122
7.00675e-06	-0.0038691097989128624
7.00700e-06	-0.0038800425364086495
7.00725e-06	-0.0038909752739043997
7.00750e-06	-0.003906576965171978
7.00775e-06	-0.003924803336008338
7.00800e-06	-0.003943029706844636
7.00825e-06	-0.003964651856567531
7.00850e-06	-0.003988182963178703
7.00875e-06	-0.004011714069789796
7.00900e-06	-0.004038318770885232
7.00925e-06	-0.004066651311029851
7.00950e-06	-0.004094983851174374
7.00975e-06	-0.004125463823640236
7.01000e-06	-0.004157150987698631
7.01025e-06	-0.00418883815175692
7.01050e-06	-0.004221705996203809
7.01075e-06	-0.004255237567011022
7.01100e-06	-0.004289324328364836
7.01125e-06	-0.004323723193319662
7.01150e-06	-0.00435815499709607
7.01175e-06	-0.004392605317623028
7.01200e-06	-0.004426557084491369
7.01225e-06	-0.004460228586515304
7.01250e-06	-0.004492951569709888
7.01275e-06	-0.004525141337517719
7.01300e-06	-0.004555916077392395
7.01325e-06	-0.004585895351069267
7.01350e-06	-0.004613879068711308
7.01375e-06	-0.0046407409729002985
7.01400e-06	-0.004664293345253028
7.01425e-06	-0.0046859852449997585
7.01450e-06	-0.004707677144746415
7.01475e-06	-0.004723681144252622
7.01500e-06	-0.004736487657495912
7.01525e-06	-0.004749294170739159
7.01550e-06	-0.004762100683982449
7.01575e-06	-0.004773313271952429
7.01600e-06	-0.004774746059993333
7.01625e-06	-0.004776178848034241
7.01650e-06	-0.004777611636075144
7.01675e-06	-0.0047790444241160475
7.01700e-06	-0.004775292883404692
7.01725e-06	-0.0047686269420768816
7.01750e-06	-0.0047590066418181955
7.01775e-06	-0.00474772553147184
7.01800e-06	-0.004734327095781347
7.01825e-06	-0.004718386560221626
7.01850e-06	-0.004700404599700562
7.01875e-06	-0.004680512572681739
7.01900e-06	-0.004658852114308288
7.01925e-06	-0.00463555848868898
7.01950e-06	-0.004610764241718449
7.01975e-06	-0.0045846005964189935
7.02000e-06	-0.0045571997264845406
7.02025e-06	-0.004528698388109783
7.02050e-06	-0.00449924965662468
7.02075e-06	-0.004469029257190162
7.02100e-06	-0.0044382196355701965
7.02125e-06	-0.004406998822600118
7.02150e-06	-0.004375542242068972
7.02175e-06	-0.0043440261749762175
7.02200e-06	-0.004312626678344274
7.02225e-06	-0.00428152228736751
7.02250e-06	-0.004250902155630534
7.02275e-06	-0.004220970002734343
7.02300e-06	-0.004191933122063841
7.02325e-06	-0.0041639957149470115
7.02350e-06	-0.0041373614058828004
7.02375e-06	-0.004112233558337462
7.02400e-06	-0.004088815498720978
7.02425e-06	-0.004066847490890056
7.02450e-06	-0.004044686788448901
7.02475e-06	-0.004019888762400867
7.02500e-06	-0.0039910911101217
7.02525e-06	-0.003958290278329931
7.02550e-06	-0.003921879230388789
7.02575e-06	-0.0038822546726593843
7.02600e-06	-0.0038398129199530215
7.02625e-06	-0.0037946601910127794
7.02650e-06	-0.003746037014403664
7.02675e-06	-0.003692681321920902
7.02700e-06	-0.0036340090016744415
7.02725e-06	-0.003570287271699377
7.02750e-06	-0.0035020315731310453
7.02775e-06	-0.0034297597680509628
7.02800e-06	-0.003353989541294622
7.02825e-06	-0.003273925980761326
7.02850e-06	-0.0031921189550530677
7.02875e-06	-0.003105304930357207
7.02900e-06	-0.0030156761920057374
7.02925e-06	-0.0029226534881414802
7.02950e-06	-0.002825966208993857
7.02975e-06	-0.0027269147021626826
7.03000e-06	-0.0026257270705095127
7.03025e-06	-0.0025237736748671726
7.03050e-06	-0.0024207142949419337
7.03075e-06	-0.0023162408592541923
7.03100e-06	-0.0022107675707943677
7.03125e-06	-0.0021048372793333373
7.03150e-06	-0.001999089999255304
7.03175e-06	-0.0018941666947939267
7.03200e-06	-0.0017907082834525958
7.03225e-06	-0.0016892841228755883
7.03250e-06	-0.0015902506946068548
7.03275e-06	-0.001493841214684512
7.03300e-06	-0.0014004553581866556
7.03325e-06	-0.0013107020288399465
7.03350e-06	-0.00122525109450795
7.03375e-06	-0.0011447728327203329
7.03400e-06	-0.0010699374883777067
7.03425e-06	-0.0010014158606661127
7.03450e-06	-0.0009398268065775512
7.03475e-06	-0.0008856160789906262
7.03500e-06	-0.0008390206480249891
7.03525e-06	-0.0008001683458108262
7.03550e-06	-0.0007691658389933665
7.03575e-06	-0.000746119610331189
7.03600e-06	-0.0007311360843748716
7.03625e-06	-0.0007243220373396565
7.03650e-06	-0.0007257516278679844
7.03675e-06	-0.0007353905751094339
7.03700e-06	-0.0007530738636455955
7.03725e-06	-0.0007785680593119482
7.03750e-06	-0.0008116265571958735
7.03775e-06	-0.0008520025823934208
7.03800e-06	-0.0008994493134758625
7.03825e-06	-0.0009537201362666705
7.03850e-06	-0.0010145481222329457
7.03875e-06	-0.0010815984135502622
7.03900e-06	-0.0011561113782840827
7.03925e-06	-0.0012335874629820743
7.03950e-06	-0.001317093252368664
7.03975e-06	-0.00140398867537895
7.04000e-06	-0.0014957157838519435
7.04025e-06	-0.0015901590524602454
7.04050e-06	-0.0016881932488124866
7.04075e-06	-0.0017882461061183412
7.04100e-06	-0.0018904501218574379
7.04125e-06	-0.0019938634238431487
7.04150e-06	-0.002097880467602717
7.04175e-06	-0.002202236908318562
7.04200e-06	-0.002305645128293376
7.04225e-06	-0.002408520300453942
7.04250e-06	-0.0025097065755191245
7.04275e-06	-0.002608267571534079
7.04300e-06	-0.002703773025309764
7.04325e-06	-0.0027940338481669902
7.04350e-06	-0.002882014261976409
7.04375e-06	-0.0029611038270437517
7.04400e-06	-0.003035195349687966
7.04425e-06	-0.00310928687233193
7.04450e-06	-0.0031743518661099712
7.04475e-06	-0.003234342544092743
7.04500e-06	-0.003288729821752001
7.04525e-06	-0.003339967115271254
7.04550e-06	-0.003383258427288872
7.04575e-06	-0.00342208285950794
7.04600e-06	-0.00346090729172714
7.04625e-06	-0.0034911485277732005
7.04650e-06	-0.0035165646700804224
7.04675e-06	-0.0035365122227622205
7.04700e-06	-0.0035533855759231382
7.04725e-06	-0.0035652195129296056
7.04750e-06	-0.003574220512782651
7.04775e-06	-0.003577985730428706
7.04800e-06	-0.003578807622600804
7.04825e-06	-0.0035756808803680054
7.04850e-06	-0.0035680358269115147
7.04875e-06	-0.0035572027773511836
7.04900e-06	-0.003543595470867262
7.04925e-06	-0.003527365877625558
7.04950e-06	-0.0035085856812618913
7.04975e-06	-0.003487326193211586
7.05000e-06	-0.0034636584453488586
7.05025e-06	-0.003437717456343841
7.05050e-06	-0.0034098393489172154
7.05075e-06	-0.003380507100246996
7.05100e-06	-0.0033500993657266643
7.05125e-06	-0.003318830674669644
7.05150e-06	-0.0032868654240382155
7.05175e-06	-0.0032543674613471595
7.05200e-06	-0.0032215007646280696
7.05225e-06	-0.0031884692743506574
7.05250e-06	-0.0031556027387432736
7.05275e-06	-0.0031233230357912713
7.05300e-06	-0.0030919864894904973
7.05325e-06	-0.003061846984919636
7.05350e-06	-0.003033126679568862
7.05375e-06	-0.003006047228210738
7.05400e-06	-0.0029808307327515364
7.05425e-06	-0.002957321122617309
7.05450e-06	-0.002934229393682785
7.05475e-06	-0.00290959751857257
7.05500e-06	-0.0028823336752763747
7.05525e-06	-0.002852445364196783
7.05550e-06	-0.0028202623025484837
7.05575e-06	-0.0027861169724905186
7.05600e-06	-0.0027503421542707865
7.05625e-06	-0.002713033666002539
7.05650e-06	-0.0026735776670943454
7.05675e-06	-0.002630941374403788
7.05700e-06	-0.002584634363613666
7.05725e-06	-0.0025348553824928077
7.05750e-06	-0.0024820047233221087
7.05775e-06	-0.0024264841680066702
7.05800e-06	-0.0023686960293705936
7.05825e-06	-0.0023088941252433115
7.05850e-06	-0.0022468873710980303
7.05875e-06	-0.0021813467033913957
7.05900e-06	-0.0021142941555714833
7.05925e-06	-0.0020448973622436105
7.05950e-06	-0.001972999473818713
7.05975e-06	-0.001899538413976316
7.06000e-06	-0.0018249597460459114
7.06025e-06	-0.001749615987731989
7.06050e-06	-0.0016735812737313455
7.06075e-06	-0.001596765373961764
7.06100e-06	-0.0015192908879981123
7.06125e-06	-0.001441550743493204
7.06150e-06	-0.0013640170746722063
7.06175e-06	-0.0012871624205901353
7.06200e-06	-0.0012114594181901511
7.06225e-06	-0.001137322479194838
7.06250e-06	-0.0010649913972422167
7.06275e-06	-0.0009946031415117617
7.06300e-06	-0.0009264280559629121
7.06325e-06	-0.0008609056927768191
7.06350e-06	-0.000798525143135961
7.06375e-06	-0.000739775800738544
7.06400e-06	-0.0006851470919124916
7.06425e-06	-0.0006352035660159413
7.06450e-06	-0.0005906920069594927
7.06475e-06	-0.0005523534821140632
7.06500e-06	-0.0005205922241825366
7.06525e-06	-0.0004955084635653764
7.06550e-06	-0.00047712189982549943
7.06575e-06	-0.00046545164370614115
7.06600e-06	-0.0004605166860100163
7.06625e-06	-0.0004623830609012308
7.06650e-06	-0.00047123102074152575
7.06675e-06	-0.00048723716987698386
7.06700e-06	-0.0005103670431988581
7.06725e-06	-0.0005403958209119259
7.06750e-06	-0.0005770482399916355
7.06775e-06	-0.0006200486662170984
7.06800e-06	-0.0006691213372696205
7.06825e-06	-0.0007240200668877901
7.06850e-06	-0.0007845701533583739
7.06875e-06	-0.0008505946939998912
7.06900e-06	-0.0009232477131267603
7.06925e-06	-0.0009985337345828826
7.06950e-06	-0.0010790834468188692
7.06975e-06	-0.0011625921734939326
7.07000e-06	-0.0012501955236055955
7.07025e-06	-0.0013401006901387444
7.07050e-06	-0.0014330454690245399
7.07075e-06	-0.0015276989837040612
7.07100e-06	-0.0016241933090276421
7.07125e-06	-0.0017217224567792715
7.07150e-06	-0.0018196365863252764
7.07175e-06	-0.0019177671356294637
7.07200e-06	-0.002014814951583732
7.07225e-06	-0.0021112541026774225
7.07250e-06	-0.002205214346609117
7.07275e-06	-0.0022977810584372295
7.07300e-06	-0.0023863830390602734
7.07325e-06	-0.0024727562229365494
7.07350e-06	-0.0025535177345217893
7.07375e-06	-0.0026311246118341162
7.07400e-06	-0.0027015786973233727
7.07425e-06	-0.002768011799215844
7.07450e-06	-0.002827767113922802
7.07475e-06	-0.002883768471657005
7.07500e-06	-0.002934369129507965
7.07525e-06	-0.00298193375245421
7.07550e-06	-0.003021885011410448
7.07575e-06	-0.0030575563734430615
7.07600e-06	-0.0030932277354755546
7.07625e-06	-0.0031206984735753745
7.07650e-06	-0.003143559183153251
7.07675e-06	-0.0031611178602684205
7.07700e-06	-0.0031756959689441984
7.07725e-06	-0.0031853781912622144
7.07750e-06	-0.003192308162539928
7.07775e-06	-0.0031941886571622
7.07800e-06	-0.0031932305590635607
7.07825e-06	-0.003188480323223401
7.07850e-06	-0.003179378894270282
7.07875e-06	-0.003167181504863412
7.07900e-06	-0.00315227548693076
7.07925e-06	-0.0031348145089937435
7.07950e-06	-0.003114880350192097
7.07975e-06	-0.003092553886545504
7.08000e-06	-0.0030679165064649316
7.08025e-06	-0.003041106570394484
7.08050e-06	-0.0030124442162433947
7.08075e-06	-0.002982383204549939
7.08100e-06	-0.0029512848992650246
7.08125e-06	-0.0029193644371953886
7.08150e-06	-0.0028867921198555933
7.08175e-06	-0.0028537374664824003
7.08200e-06	-0.002820370043042521
7.08225e-06	-0.002786895353741182
7.08250e-06	-0.0027536327604264243
7.08275e-06	-0.002720985476755103
7.08300e-06	-0.0026892985131235815
7.08325e-06	-0.0026588252809167153
7.08350e-06	-0.0026297910296809706
7.08375e-06	-0.0026024208228624685
7.08400e-06	-0.002576939658649368
7.08425e-06	-0.002553548753376963
7.08450e-06	-0.002532362522464862
7.08475e-06	-0.0025141143416138275
7.08500e-06	-0.0024970664818854335
7.08525e-06	-0.00248449494841053
7.08550e-06	-0.0024744398078183722
7.08575e-06	-0.00246438466722618
7.08600e-06	-0.0024543295266340223
7.08625e-06	-0.0024504511230747546
7.08650e-06	-0.00245004500822456
7.08675e-06	-0.0024496388933743667
7.08700e-06	-0.0024492327785241735
7.08725e-06	-0.0024538680298280676
7.08750e-06	-0.0024613373144866985
7.08775e-06	-0.0024688065991453293
7.08800e-06	-0.0024802150787287184
7.08825e-06	-0.0024938379996889064
7.08850e-06	-0.0025074609206491407
7.08875e-06	-0.0025244272562172966
7.08900e-06	-0.002543273111786143
7.08925e-06	-0.0025621189673550528
7.08950e-06	-0.0025835867630688747
7.08975e-06	-0.002606528497710665
7.09000e-06	-0.0026294702323525336
7.09025e-06	-0.0026542987702691022
7.09050e-06	-0.002680187985639121
7.09075e-06	-0.0027060772010092282
7.09100e-06	-0.0027328519142508626
7.09125e-06	-0.002760124415279937
7.09150e-06	-0.0027876164587724065
7.09175e-06	-0.002815231919339583
7.09200e-06	-0.002842652727865297
7.09225e-06	-0.0028699641116119536
7.09250e-06	-0.0028966287170017566
7.09275e-06	-0.002922929732170274
7.09300e-06	-0.002948089812133947
7.09325e-06	-0.002972608508725205
7.09350e-06	-0.0029959707694897997
7.09375e-06	-0.0030177520015311943
7.09400e-06	-0.0030379591416408273
7.09425e-06	-0.0030563130335604463
7.09450e-06	-0.003071236366275471
7.09475e-06	-0.0030846301818823036
7.09500e-06	-0.0030936853882999773
7.09525e-06	-0.0031003016202853675
7.09550e-06	-0.0031015562517120138
7.09575e-06	-0.00309979682814813
7.09600e-06	-0.003098037404584252
7.09625e-06	-0.003089701245965364
7.09650e-06	-0.0030776679374195748
7.09675e-06	-0.0030656346288738265
7.09700e-06	-0.003047650820337464
7.09725e-06	-0.003026321903564264
7.09750e-06	-0.003001668997641846
7.09775e-06	-0.002973090529507424
7.09800e-06	-0.0029414184483470855
7.09825e-06	-0.0029068030522348223
7.09850e-06	-0.002869293841929131
7.09875e-06	-0.0028289009049012968
7.09900e-06	-0.0027857466130295533
7.09925e-06	-0.0027400736912906853
7.09950e-06	-0.002692158342086615
7.09975e-06	-0.0026422772334800944
7.10000e-06	-0.002590707052061809
7.10025e-06	-0.0025377018949260008
7.10050e-06	-0.0024834523832951874
7.10075e-06	-0.002428124591497102
7.10100e-06	-0.002371954820353111
7.10125e-06	-0.002315254987346689
7.10150e-06	-0.002258357742209762
7.10175e-06	-0.002201596163279045
7.10200e-06	-0.002145303216902734
7.10225e-06	-0.0020897976078934296
7.10250e-06	-0.002035358269649592
7.10275e-06	-0.0019822490371669806
7.10300e-06	-0.001930777516956858
7.10325e-06	-0.0018812984270023822
7.10350e-06	-0.0018341797887648117
7.10375e-06	-0.0017897897820143072
7.10400e-06	-0.001748496404846979
7.10425e-06	-0.001710339631906891
7.10450e-06	-0.0016743622943298352
7.10475e-06	-0.001638980980715133
7.10500e-06	-0.0016033094187918445
7.10525e-06	-0.0015673875611069107
7.10550e-06	-0.0015315297532149195
7.10575e-06	-0.0014960526447914838
7.10600e-06	-0.0014612726619451883
7.10625e-06	-0.0014273008709084448
7.10650e-06	-0.0013936238285000976
7.10675e-06	-0.0013593356091871282
7.10700e-06	-0.001323967313000639
7.10725e-06	-0.001287630145588149
7.10750e-06	-0.0012506071178444598
7.10775e-06	-0.0012131780166549494
7.10800e-06	-0.0011756386737709751
7.10825e-06	-0.0011381385668364045
7.10850e-06	-0.0011004388875337234
7.10875e-06	-0.001061773783929019
7.10900e-06	-0.0010226360004687
7.10925e-06	-0.0009828039679965698
7.10950e-06	-0.0009423440080350538
7.10975e-06	-0.0009016819650539689
7.11000e-06	-0.0008610821018341388
7.11025e-06	-0.0008207280108516421
7.11050e-06	-0.0007805582157484893
7.11075e-06	-0.0007403574205188667
7.11100e-06	-0.0007000817375777148
7.11125e-06	-0.0006599149219402873
7.11150e-06	-0.0006201081189223377
7.11175e-06	-0.0005809130557106299
7.11200e-06	-0.0005425813313940436
7.11225e-06	-0.0005053140097319682
7.11250e-06	-0.0004691586886755439
7.11275e-06	-0.00043406655535568406
7.11300e-06	-0.00040009616445543995
7.11325e-06	-0.00036744870843661117
7.11350e-06	-0.00033636755947325317
7.11375e-06	-0.0003070963853074379
7.11400e-06	-0.00027987880594644007
7.11425e-06	-0.0002548938096856821
7.11450e-06	-0.00023211001685460286
7.11475e-06	-0.0002113281089816906
7.11500e-06	-0.00019243336687366555
7.11525e-06	-0.00017546624912896845
7.11550e-06	-0.0001605160429792916
7.11575e-06	-0.0001476724382729261
7.11600e-06	-0.00013702504801978822
7.11625e-06	-0.00012862298824394404
7.11650e-06	-0.00012238362429457957
7.11675e-06	-0.00011811913744486949
7.11700e-06	-0.00011569469686166354
7.11725e-06	-0.00011507268366956925
7.11750e-06	-0.00011624606154115733
7.11775e-06	-0.00011920804986294234
7.11800e-06	-0.0001239518229053413
7.11825e-06	-0.0001304451731489031
7.11850e-06	-0.00013857336465845988
7.11875e-06	-0.0001481558114282457
7.11900e-06	-0.00015904511967280006
7.11925e-06	-0.00017115478040618685
7.11950e-06	-0.00018441744917870552
7.11975e-06	-0.00019908426204420841
7.12000e-06	-0.0002143120628032296
7.12025e-06	-0.0002306738542277573
7.12050e-06	-0.0002476731251112037
7.12075e-06	-0.0002654019405932966
7.12100e-06	-0.00028354087382162545
7.12125e-06	-0.0003020826834925444
7.12150e-06	-0.0003208509725025849
7.12175e-06	-0.0003397533083578238
7.12200e-06	-0.00035873099942806475
7.12225e-06	-0.0003775407453577205
7.12250e-06	-0.0003962560799483084
7.12275e-06	-0.00041438920968650533
7.12300e-06	-0.00043219504957525684
7.12325e-06	-0.00044874774863481987
7.12350e-06	-0.00046459598727683694
7.12375e-06	-0.000480444225918854
7.12400e-06	-0.0004949608394124821
7.12425e-06	-0.000508100426180802
7.12450e-06	-0.0005207776651601027
7.12475e-06	-0.0005342027186021138
7.12500e-06	-0.0005480826263852347
7.12525e-06	-0.0005632467507638159
7.12550e-06	-0.0005791328049829269
7.12575e-06	-0.0005950188592019841
7.12600e-06	-0.0006116558986838012
7.12625e-06	-0.0006287151089060735
7.12650e-06	-0.0006472994536442076
7.12675e-06	-0.0006667411616353372
7.12700e-06	-0.0006861828696264008
7.12725e-06	-0.0007079449635954936
7.12750e-06	-0.000731011476059807
7.12775e-06	-0.0007540779885240423
7.12800e-06	-0.0007788215721183209
7.12825e-06	-0.0008045079310183379
7.12850e-06	-0.0008301942899182679
7.12875e-06	-0.0008563229015851105
7.12900e-06	-0.0008851650303984889
7.12925e-06	-0.0009140071592117696
7.12950e-06	-0.0009428492880250504
7.12975e-06	-0.0009728014129013618
7.13000e-06	-0.001003377528530687
7.13025e-06	-0.0010339536441600124
7.13050e-06	-0.0010649734278327736
7.13075e-06	-0.0010962426220805957
7.13100e-06	-0.0011275118163285235
7.13125e-06	-0.0011587640691914148
7.13150e-06	-0.0011900067983560748
7.13175e-06	-0.0012212495275208406
7.13200e-06	-0.0012514332710828859
7.13225e-06	-0.001281021699719278
7.13250e-06	-0.00131061012835577
7.13275e-06	-0.0013385327866245772
7.13300e-06	-0.001365519022377279
7.13325e-06	-0.0013925052581300723
7.13350e-06	-0.0014168986670846488
7.13375e-06	-0.0014398345033501334
7.13400e-06	-0.0014627703396156955
7.13425e-06	-0.0014821405856902273
7.13450e-06	-0.00149950641446758
7.13475e-06	-0.001516872243244992
7.13500e-06	-0.0015304020158502442
7.13525e-06	-0.001541775327131487
7.13550e-06	-0.0015531486384126913
7.13575e-06	-0.001560447124325354
7.13600e-06	-0.0015654549234192928
7.13625e-06	-0.001570462722513215
7.13650e-06	-0.00157136712938715
7.13675e-06	-0.001569964790420418
7.13700e-06	-0.0015685624514536907
7.13725e-06	-0.0015633819849213415
7.13750e-06	-0.0015560776219686076
7.13775e-06	-0.0015487732590158984
7.13800e-06	-0.001538525789985042
7.13825e-06	-0.0015266238367273813
7.13850e-06	-0.0015125965842460222
7.13875e-06	-0.0014973745824252195
7.13900e-06	-0.001480751637369775
7.13925e-06	-0.0014625000861265343
7.13950e-06	-0.001443002039648968
7.13975e-06	-0.0014223628864325811
7.14000e-06	-0.0014006881732811067
7.14025e-06	-0.0013780882583135149
7.14050e-06	-0.0013546929483072017
7.14075e-06	-0.0013306530269312688
7.14100e-06	-0.001306121523518818
7.14125e-06	-0.001281243937463203
7.14150e-06	-0.0012561626539669165
7.14175e-06	-0.001231020081597588
7.14200e-06	-0.001205958638187083
7.14225e-06	-0.001181123829607198
7.14250e-06	-0.0011566733543509162
7.14275e-06	-0.001132777930078798
7.14300e-06	-0.001109609762433304
7.14325e-06	-0.00108733627919153
7.14350e-06	-0.0010661229484190456
7.14375e-06	-0.001046135270810244
7.14400e-06	-0.0010275387889529
