Time(s)	Current(A)
1.05000e-05	0.004941444657715624
1.05002e-05	0.004943898061803783
1.05005e-05	0.004946351465891959
1.05008e-05	0.004948804869980136
1.05010e-05	0.004951258274068295
1.05013e-05	0.0049537116781564715
1.05015e-05	0.004956165082244648
1.05017e-05	0.004958618486332808
1.05020e-05	0.0049610718904209835
1.05023e-05	0.00496352529450916
1.05025e-05	0.00496597869859732
1.05028e-05	0.0049684321026854964
1.05030e-05	0.004970885506773672
1.05033e-05	0.0049733389108618485
1.05035e-05	0.0049757923149500085
1.05038e-05	0.004978245719038185
1.05040e-05	0.004987573161591289
1.05043e-05	0.005000036970622713
1.05045e-05	0.005012500779654219
1.05048e-05	0.005024964588685727
1.05050e-05	0.00503742839771715
1.05053e-05	0.005049892206748657
1.05055e-05	0.005062356015780164
1.05058e-05	0.005074819824811587
1.05060e-05	0.005087283633843094
1.05063e-05	0.0050997474428746015
1.05065e-05	0.005112211251906024
1.05068e-05	0.005124436740817413
1.05070e-05	0.00513562399004513
1.05073e-05	0.005146811239272771
1.05075e-05	0.005157998488500488
1.05078e-05	0.005169185737728205
1.05080e-05	0.005180372986955846
1.05083e-05	0.005191560236183564
1.05085e-05	0.00520274748541128
1.05087e-05	0.005213934734638922
1.05090e-05	0.0052251219838666384
1.05093e-05	0.005236309233094355
1.05095e-05	0.0052474964823219965
1.05098e-05	0.005244141539404054
1.05100e-05	0.005234151538476051
1.05102e-05	0.005224161537548117
1.05105e-05	0.005214171536620115
1.05108e-05	0.005204181535692112
1.05110e-05	0.005194191534764177
1.05113e-05	0.005184201533836175
1.05115e-05	0.005174211532908172
1.05118e-05	0.00516422153198017
1.05120e-05	0.005154231531052236
1.05123e-05	0.005144241530124233
1.05125e-05	0.005114626351906839
1.05128e-05	0.00507605693979755
1.05130e-05	0.005037487527687999
1.05133e-05	0.004998918115578449
1.05135e-05	0.00496034870346916
1.05138e-05	0.0049217792913596094
1.05140e-05	0.004883209879250059
1.05143e-05	0.0048446404671407695
1.05145e-05	0.0048060710550312195
1.05148e-05	0.004767501642921669
1.05150e-05	0.0047289322308123796
1.05153e-05	0.00468170844667838
1.05155e-05	0.004630535996493558
1.05158e-05	0.0045793635463090825
1.05160e-05	0.0045281910961242604
1.05163e-05	0.004477018645939438
1.05165e-05	0.004425846195754963
1.05168e-05	0.004374673745570141
1.05170e-05	0.004323501295385319
1.05172e-05	0.004276842243248009
1.05175e-05	0.004232242485718214
1.05178e-05	0.0041876427281884185
1.05180e-05	0.004143042970658926
1.05183e-05	0.004098443213129131
1.05185e-05	0.004053843455599336
1.05187e-05	0.004009243698069842
1.05190e-05	0.003964643940540047
1.05193e-05	0.003940603802711235
1.05195e-05	0.003925944249876387
1.05198e-05	0.003911284697041439
1.05200e-05	0.003896625144206491
1.05203e-05	0.003881965591371543
1.05205e-05	0.0038673060385366943
1.05208e-05	0.0038526464857017466
1.05210e-05	0.003837986932866799
1.05213e-05	0.00382332738003195
1.05215e-05	0.0038086678271970023
1.05218e-05	0.0038228356648150755
1.05220e-05	0.003850156361787238
1.05223e-05	0.0038774770587595856
1.05225e-05	0.0039047977557319334
1.05228e-05	0.003932118452704096
1.05230e-05	0.0039594391496764435
1.05233e-05	0.0039867598466487904
1.05235e-05	0.0040140805436209535
1.05238e-05	0.0040414012405933005
1.05240e-05	0.004068721937565648
1.05243e-05	0.004114381936437379
1.05245e-05	0.004168409472390007
1.05248e-05	0.004222437008342635
1.05250e-05	0.004276464544294896
1.05253e-05	0.004330492080247524
1.05255e-05	0.004384519616200152
1.05257e-05	0.004438547152152413
1.05260e-05	0.004492574688105041
1.05263e-05	0.004549473031085062
1.05265e-05	0.0046076812158670835
1.05268e-05	0.004665889400649499
1.05270e-05	0.004724097585431915
1.05272e-05	0.004782305770213936
1.05275e-05	0.004840513954996351
1.05278e-05	0.004898722139778767
1.05280e-05	0.004956930324560788
1.05283e-05	0.004999708737970569
1.05285e-05	0.0050354471241843965
1.05288e-05	0.005071185510398224
1.05290e-05	0.00510692389661181
1.05293e-05	0.005142662282825638
1.05295e-05	0.005178400669039466
1.05298e-05	0.005214139055253052
1.05300e-05	0.0052498774414668796
1.05303e-05	0.005285615827680707
1.05305e-05	0.005321354213894293
1.05308e-05	0.0053280599207542086
1.05310e-05	0.00532151910261429
1.05313e-05	0.005314978284474414
1.05315e-05	0.0053084374663344945
1.05318e-05	0.005301896648194575
1.05320e-05	0.005295355830054699
1.05323e-05	0.0052888150119147805
1.05325e-05	0.005282274193774861
1.05328e-05	0.005275733375634985
1.05330e-05	0.0052691925574950655
1.05333e-05	0.005239348779751697
1.05335e-05	0.005198872733687651
1.05338e-05	0.00515839668762333
1.05340e-05	0.00511792064155901
1.05342e-05	0.005077444595494963
1.05345e-05	0.005036968549430642
1.05348e-05	0.004996492503366322
1.05350e-05	0.004956016457302275
1.05353e-05	0.004912970867114636
1.05355e-05	0.0048587310786384775
1.05357e-05	0.0048044912901626866
1.05360e-05	0.004750251501686528
1.05363e-05	0.004696011713210369
1.05365e-05	0.004641771924734578
1.05368e-05	0.0045875321362584195
1.05370e-05	0.004533292347782261
1.05373e-05	0.004479052559306102
1.05375e-05	0.004430318337443767
1.05378e-05	0.00438409609957367
1.05380e-05	0.004337873861703573
1.05383e-05	0.004291651623833789
1.05385e-05	0.004245429385963692
1.05388e-05	0.004199207148093595
1.05390e-05	0.004152984910223811
1.05393e-05	0.004106762672353713
1.05395e-05	0.0040693799284343924
1.05398e-05	0.004036030314775534
1.05400e-05	0.00400268070111645
1.05403e-05	0.003969331087457366
1.05405e-05	0.003935981473798509
1.05408e-05	0.0039026318601394247
1.05410e-05	0.003869282246480341
1.05413e-05	0.003835932632821483
1.05415e-05	0.003804369570890223
1.05418e-05	0.0037736216456484345
1.05420e-05	0.0037428737204068547
1.05423e-05	0.0037121257951650663
1.05425e-05	0.003681377869923278
1.05427e-05	0.003650629944681698
1.05430e-05	0.0036198820194399102
1.05433e-05	0.003589134094198122
1.05435e-05	0.003558386168956542
1.05438e-05	0.0035276382437147537
1.05440e-05	0.0034968903184729653
1.05442e-05	0.0034661423932313856
1.05445e-05	0.003435394467989597
1.05448e-05	0.0034050632914789454
1.05450e-05	0.0033765476774618463
1.05453e-05	0.003348032063444554
1.05455e-05	0.0033195164494272617
1.05458e-05	0.0032910008354099696
1.05460e-05	0.0032624852213928705
1.05463e-05	0.0032339696073755784
1.05465e-05	0.003205453993358286
1.05468e-05	0.0031769383793411867
1.05470e-05	0.0031484227653238946
1.05473e-05	0.003119907151306602
1.05475e-05	0.003091391537289503
1.05478e-05	0.003062875923272211
1.05480e-05	0.0030343603092549184
1.05483e-05	0.0030160275667746057
1.05485e-05	0.003002340887470945
1.05488e-05	0.0029886542081672836
1.05490e-05	0.0029749675288637156
1.05493e-05	0.0029612808495600544
1.05495e-05	0.0029475941702563936
1.05498e-05	0.0029339074909528256
1.05500e-05	0.0029202208116491644
1.05503e-05	0.0029065341323455036
1.05505e-05	0.0028928474530419356
1.05508e-05	0.0028791607737382744
1.05510e-05	0.0028654740944346136
1.05512e-05	0.002856493709088351
1.05515e-05	0.002868016255498924
1.05518e-05	0.0028795388019094968
1.05520e-05	0.002891061348319992
1.05523e-05	0.002902583894730565
1.05525e-05	0.002914106441141138
1.05527e-05	0.0029256289875516333
1.05530e-05	0.0029371515339622063
1.05533e-05	0.0029486740803727793
1.05535e-05	0.0029601966267832746
1.05538e-05	0.0029717191731938476
1.05540e-05	0.0029832417196044205
1.05543e-05	0.0029947642660149935
1.05545e-05	0.0030165250432755324
1.05548e-05	0.003042957142096338
1.05550e-05	0.0030693892409171435
1.05553e-05	0.00309582133973777
1.05555e-05	0.0031222534385585755
1.05558e-05	0.003148685537379381
1.05560e-05	0.0031751176362000075
1.05563e-05	0.003201549735020813
1.05565e-05	0.0032279818338416186
1.05568e-05	0.003254046540848018
1.05570e-05	0.0032799436207197785
1.05573e-05	0.0033058407005915388
1.05575e-05	0.003331737780463124
1.05578e-05	0.0033576348603348845
1.05580e-05	0.0033835319402066447
1.05583e-05	0.0034094290200782297
1.05585e-05	0.0034353260999499904
1.05588e-05	0.0034612231798217506
1.05590e-05	0.003485220959839699
1.05593e-05	0.0035083521604177626
1.05595e-05	0.0035314833609958263
1.05597e-05	0.003554614561573733
1.05600e-05	0.0035777457621517968
1.05603e-05	0.0036008769627298605
1.05605e-05	0.0036240081633077677
1.05608e-05	0.0036471393638858314
1.05610e-05	0.0036821294161025458
1.05612e-05	0.003722530218492922
1.05615e-05	0.003762931020883572
1.05618e-05	0.003803331823274222
1.05620e-05	0.0038437326256645977
1.05623e-05	0.0038841334280552476
1.05625e-05	0.003924534230445898
1.05628e-05	0.003964935032836548
1.05630e-05	0.004018815625585284
1.05633e-05	0.004078846542181444
1.05635e-05	0.0041388774587776045
1.05638e-05	0.004198908375373358
1.05640e-05	0.004258939291969518
1.05643e-05	0.004318970208565679
1.05645e-05	0.004379001125161432
1.05648e-05	0.004439032041757592
1.05650e-05	0.004500757864584461
1.05653e-05	0.004569867532772228
1.05655e-05	0.004638977200960463
1.05658e-05	0.0047080868691486985
1.05660e-05	0.004777196537336465
1.05663e-05	0.004846306205524701
1.05665e-05	0.0049154158737129364
1.05668e-05	0.004984525541900703
1.05670e-05	0.005053635210088938
1.05673e-05	0.005116479858538116
1.05675e-05	0.005176466012953545
1.05678e-05	0.005236452167369381
1.05680e-05	0.005296438321785217
1.05682e-05	0.005356424476200646
1.05685e-05	0.005416410630616482
1.05688e-05	0.0054763967850323175
1.05690e-05	0.005516364302154344
1.05693e-05	0.005547198064293426
1.05695e-05	0.005578031826432508
1.05697e-05	0.005608865588571381
1.05700e-05	0.005639699350710463
1.05703e-05	0.005670533112849545
1.05705e-05	0.005701366874988418
1.05708e-05	0.005696500371047524
1.05710e-05	0.005675345171804529
1.05713e-05	0.005654189972561534
1.05715e-05	0.005633034773318683
1.05718e-05	0.005611879574075688
1.05720e-05	0.005590724374832694
1.05723e-05	0.005569569175589843
1.05725e-05	0.005548413976346848
1.05728e-05	0.005527258777103854
1.05730e-05	0.0054705016927043
1.05733e-05	0.005397500800535299
1.05735e-05	0.005324499908366299
1.05738e-05	0.005251499016197793
1.05740e-05	0.005178498124028792
1.05743e-05	0.005105497231859791
1.05745e-05	0.0050324963396912855
1.05748e-05	0.004959495447522284
1.05750e-05	0.004886494555353284
1.05753e-05	0.00479719582215586
1.05755e-05	0.004700460994055105
1.05758e-05	0.00460372616595435
1.05760e-05	0.004506991337854251
1.05763e-05	0.004410256509753497
1.05765e-05	0.004313521681652742
1.05767e-05	0.004217462511310138
1.05770e-05	0.004124346838554439
1.05773e-05	0.004031231165798739
1.05775e-05	0.00393811549304367
1.05778e-05	0.00384499982028797
1.05780e-05	0.00375188414753227
1.05782e-05	0.0036587684747772012
1.05785e-05	0.0035774560776399666
1.05788e-05	0.003501529073421865
1.05790e-05	0.003425602069204278
1.05793e-05	0.00336232351546117
1.05795e-05	0.0033048159762931696
1.05798e-05	0.0032473084371251694
1.05800e-05	0.0032043266866720642
1.05803e-05	0.003167972509971949
1.05805e-05	0.003131618333271834
1.05808e-05	0.003110552850438731
1.05810e-05	0.003096463026427739
1.05813e-05	0.003082373202416747
1.05815e-05	0.0030838764349222342
1.05818e-05	0.0030924941955358144
1.05820e-05	0.003101111956149394
1.05823e-05	0.003124355804988242
1.05825e-05	0.0031542729904935406
1.05828e-05	0.0031841901759988396
1.05830e-05	0.0032274113827982028
1.05833e-05	0.0032767027166027305
1.05835e-05	0.0033259940504072583
1.05838e-05	0.0033867583798456516
1.05840e-05	0.0034527574078081374
1.05843e-05	0.0035187564357706236
1.05845e-05	0.003597334566274458
1.05848e-05	0.0036816520704878643
1.05850e-05	0.003765969574701271
1.05853e-05	0.003850287078914106
1.05855e-05	0.003934604583127513
1.05858e-05	0.0040189220873409195
1.05860e-05	0.004104778564144329
1.05863e-05	0.004197339562666647
1.05865e-05	0.004289900561188966
1.05867e-05	0.004382461559710657
1.05870e-05	0.004475022558232976
1.05873e-05	0.004567583556755294
1.05875e-05	0.004660144555276985
1.05878e-05	0.004739230517863377
1.05880e-05	0.00481216832586299
1.05883e-05	0.0048851061338626035
1.05885e-05	0.004958043941861722
1.05888e-05	0.005030981749861335
1.05890e-05	0.005103919557860949
1.05893e-05	0.005176857365860067
1.05895e-05	0.00524979517385968
1.05898e-05	0.005288899523996997
1.05900e-05	0.005312566933547256
1.05903e-05	0.005336234343097675
1.05905e-05	0.005359901752648093
1.05908e-05	0.0053835691621983515
1.05910e-05	0.00540723657174877
1.05913e-05	0.0054309039812991886
1.05915e-05	0.005454571390849447
1.05918e-05	0.005440329222648423
1.05920e-05	0.005408790332905008
1.05923e-05	0.005377251443161808
1.05925e-05	0.0053457125534183934
1.05928e-05	0.005314173663674979
1.05930e-05	0.0052826347739317785
1.05933e-05	0.005251095884188364
1.05935e-05	0.005219556994444949
1.05938e-05	0.005159914029893943
1.05940e-05	0.0050874482278166775
1.05943e-05	0.005014982425739413
1.05945e-05	0.004942516623662638
1.05948e-05	0.0048700508215853726
1.05950e-05	0.004797585019508107
1.05952e-05	0.004725119217431333
1.05955e-05	0.004652653415354068
1.05958e-05	0.004569326740441919
1.05960e-05	0.004481044655729138
1.05963e-05	0.004392762571015759
1.05965e-05	0.004304480486302379
1.05968e-05	0.004216198401588999
1.05970e-05	0.004127916316876218
1.05973e-05	0.004044214860723404
1.05975e-05	0.003962603373950708
1.05978e-05	0.003880991887178565
1.05980e-05	0.003799380400405869
1.05983e-05	0.0037177689136331724
1.05985e-05	0.0036361574268610293
1.05988e-05	0.003566557899032435
1.05990e-05	0.0035024389785174538
1.05993e-05	0.0034383200580029075
1.05995e-05	0.003384277028085856
1.05998e-05	0.003334831249954371
1.06000e-05	0.003285385471823221
1.06003e-05	0.003235939693691736
1.06005e-05	0.003186493915560251
1.06008e-05	0.0031370481374291014
1.06010e-05	0.0030876023592976165
1.06013e-05	0.003038156581166131
1.06015e-05	0.0029967706708014788
1.06018e-05	0.00295906217645489
1.06020e-05	0.002921353682108301
1.06023e-05	0.0028836451877619677
1.06025e-05	0.002845936693415379
1.06028e-05	0.00280822819906879
1.06030e-05	0.0027705197047224565
1.06033e-05	0.0027328112103758677
1.06035e-05	0.002700041717183288
1.06037e-05	0.0026695257053737337
1.06040e-05	0.0026390096935639726
1.06043e-05	0.002608493681754212
1.06045e-05	0.002577977669944658
1.06048e-05	0.002547461658134897
1.06050e-05	0.0025169456463251362
1.06053e-05	0.002486429634515375
1.06055e-05	0.002455913622705821
1.06058e-05	0.0024253976108960604
1.06060e-05	0.0023948815990862994
1.06063e-05	0.0023697258601837767
1.06065e-05	0.0023470158131988442
1.06068e-05	0.002324305766213912
1.06070e-05	0.002301595719229133
1.06073e-05	0.0022788856722442
1.06075e-05	0.0022561756252592676
1.06078e-05	0.0022334655782744886
1.06080e-05	0.002210755531289556
1.06083e-05	0.0021880454843046238
1.06085e-05	0.002165335437319845
1.06088e-05	0.002142625390334912
1.06090e-05	0.0021320556564335957
1.06093e-05	0.0021270250930383486
1.06095e-05	0.002121994529643067
1.06098e-05	0.0021169639662477857
1.06100e-05	0.002111933402852538
1.06103e-05	0.0021069028394572567
1.06105e-05	0.0021018722760619752
1.06108e-05	0.0020968417126667276
1.06110e-05	0.002091811149271446
1.06113e-05	0.0020926051183061856
1.06115e-05	0.002118773616075502
1.06118e-05	0.0021449421138449954
1.06120e-05	0.002171110611614489
1.06122e-05	0.002197279109383805
1.06125e-05	0.0022234476071532985
1.06128e-05	0.002249616104922792
1.06130e-05	0.0022757846026921083
1.06133e-05	0.0023019531004616015
1.06135e-05	0.002328121598231095
1.06138e-05	0.0023700195497649464
1.06140e-05	0.0024190942623731554
1.06143e-05	0.002468168974981697
1.06145e-05	0.0025172436875902393
1.06148e-05	0.0025663184001984483
1.06150e-05	0.00261539311280699
1.06153e-05	0.0026644678254155317
1.06155e-05	0.002718928630887349
1.06158e-05	0.002775846908957782
1.06160e-05	0.0028327651870282146
1.06163e-05	0.002889683465098262
1.06165e-05	0.0029466017431686946
1.06168e-05	0.0030035200212391276
1.06170e-05	0.0030604382993091746
1.06173e-05	0.0031125046802889913
1.06175e-05	0.00316235732220924
1.06178e-05	0.003212209964129151
1.06180e-05	0.0032620626060493995
1.06183e-05	0.0033119152479696478
1.06185e-05	0.0033617678898895586
1.06188e-05	0.0034116205318098073
1.06190e-05	0.0034570254273042686
1.06193e-05	0.0034830537512226733
1.06195e-05	0.0035090820751412545
1.06198e-05	0.0035351103990598353
1.06200e-05	0.00356113872297824
1.06203e-05	0.003587167046896821
1.06205e-05	0.003613195370815402
1.06207e-05	0.0036392236947338065
1.06210e-05	0.0036418967250927397
1.06213e-05	0.0036339136090736304
1.06215e-05	0.0036259304930545753
1.06218e-05	0.003617947377035466
1.06220e-05	0.0036099642610163568
1.06222e-05	0.0036019811449973017
1.06225e-05	0.0035939980289781924
1.06228e-05	0.003586014912959083
1.06230e-05	0.003578031796939974
1.06233e-05	0.003549462570516911
1.06235e-05	0.003511500672352237
1.06238e-05	0.003473538774187563
1.06240e-05	0.0034355768760231465
1.06243e-05	0.0033976149778584728
1.06245e-05	0.003359653079693799
1.06248e-05	0.003321691181529382
1.06250e-05	0.0032837292833647084
1.06253e-05	0.0032457673852000343
1.06255e-05	0.003199099285072361
1.06258e-05	0.0031484588708183374
1.06260e-05	0.003097818456564314
1.06263e-05	0.003047178042310634
1.06265e-05	0.0029965376280566103
1.06268e-05	0.002945897213802587
1.06270e-05	0.0028958356663240084
1.06273e-05	0.002848295947301771
1.06275e-05	0.002800756228279534
1.06278e-05	0.0027532165092576185
1.06280e-05	0.002705676790235381
1.06283e-05	0.002658137071213144
1.06285e-05	0.0026105973521912285
1.06288e-05	0.0025702931937948608
1.06290e-05	0.002533290350921526
1.06292e-05	0.0024962875080484417
1.06295e-05	0.002467451880595783
1.06298e-05	0.0024423426478820042
1.06300e-05	0.0024172334151683957
1.06303e-05	0.0024019423960383994
1.06305e-05	0.0023911310603207366
1.06307e-05	0.002380319724603147
1.06310e-05	0.0023794740672653863
1.06313e-05	0.002383175376007569
1.06315e-05	0.002386876684749751
1.06318e-05	0.002401029714134352
1.06320e-05	0.002419951472493072
1.06323e-05	0.0024388732308517924
1.06325e-05	0.0024674760237609664
1.06328e-05	0.002500495910423529
1.06330e-05	0.0025335157970860916
1.06333e-05	0.0025750873095680446
1.06335e-05	0.002620560608867722
1.06338e-05	0.002666033908167399
1.06340e-05	0.0027220398080667796
1.06343e-05	0.0027828513394385747
1.06345e-05	0.0028436628708103703
1.06348e-05	0.002904474402181753
1.06350e-05	0.0029652859335535485
1.06353e-05	0.0030260974649253436
1.06355e-05	0.003088705119664507
1.06358e-05	0.00315913757143307
1.06360e-05	0.003229570023201633
1.06363e-05	0.003300002474969719
1.06365e-05	0.0033704349267382827
1.06368e-05	0.003440867378506846
1.06370e-05	0.003511299830274932
1.06373e-05	0.003575458567324974
1.06375e-05	0.003636754843141832
1.06377e-05	0.003698051118958274
1.06380e-05	0.003759347394775132
1.06383e-05	0.00382064367059199
1.06385e-05	0.003881939946408432
1.06388e-05	0.00394323622222529
1.06390e-05	0.004004532498042148
1.06392e-05	0.004044743293227148
1.06395e-05	0.004075333572720629
1.06398e-05	0.00410592385221411
1.06400e-05	0.004136514131707591
1.06403e-05	0.004167104411200865
1.06405e-05	0.0041976946906943455
1.06408e-05	0.0042282849701878265
1.06410e-05	0.0042588752496811
1.06413e-05	0.004262893331330317
1.06415e-05	0.004254787513561995
1.06418e-05	0.0042466816957937295
1.06420e-05	0.004238575878025408
1.06423e-05	0.004230470060257088
1.06425e-05	0.004222364242488821
1.06428e-05	0.0042142584247205
1.06430e-05	0.004206152606952179
1.06433e-05	0.004198046789183913
1.06435e-05	0.004168681703140666
1.06438e-05	0.004129616808606817
1.06440e-05	0.004090551914073233
1.06443e-05	0.0040514870195393834
1.06445e-05	0.004012422125005534
1.06448e-05	0.003973357230471951
1.06450e-05	0.003934292335938102
1.06453e-05	0.0038952274414042524
1.06455e-05	0.0038561625468706683
1.06458e-05	0.003808977117480023
1.06460e-05	0.003758086591943145
1.06462e-05	0.0037071960664066123
1.06465e-05	0.0036563055408697343
1.06468e-05	0.0036054150153328563
1.06470e-05	0.0035545244897963236
1.06473e-05	0.0035036339642594456
1.06475e-05	0.003457100049305763
1.06477e-05	0.0034125538927165908
1.06480e-05	0.003368007736127117
1.06483e-05	0.003323461579537643
1.06485e-05	0.003278915422948169
1.06488e-05	0.0032343692663589965
1.06490e-05	0.0031898231097695225
1.06493e-05	0.00316378084871734
1.06495e-05	0.003146181222696486
1.06498e-05	0.0031285815966755125
