Time(s)	Current(A)
4.00000e-06	-0.0017906831634742766
4.00025e-06	-0.001819944654856125
4.00050e-06	-0.001848201447431246
4.00075e-06	-0.0018764582400064625
4.00100e-06	-0.0018993408561636675
4.00125e-06	-0.0019212237158432273
4.00150e-06	-0.0019431065755228614
4.00175e-06	-0.0019596692443014517
4.00200e-06	-0.0019752421995124555
4.00225e-06	-0.0019908151547235117
4.00250e-06	-0.002000107445796585
4.00275e-06	-0.0020082313467448846
4.00300e-06	-0.0020163552476932115
4.00325e-06	-0.0020244791486415106
4.00350e-06	-0.0020326030495898097
4.00375e-06	-0.0020407269505381366
4.00400e-06	-0.002048850851486436
4.00425e-06	-0.002056974752434763
4.00450e-06	-0.002065098653383062
4.00475e-06	-0.002067475725159941
4.00500e-06	-0.0020687837159758496
4.00525e-06	-0.002070091706791754
4.00550e-06	-0.0020713996976076585
4.00575e-06	-0.0020727076884235673
4.00600e-06	-0.0020740156792394718
4.00625e-06	-0.002075323670055376
4.00650e-06	-0.002076631660871285
4.00675e-06	-0.0020779396516871895
4.00700e-06	-0.0020783440012921775
4.00725e-06	-0.0020785802467852724
4.00750e-06	-0.0020788164922783668
4.00775e-06	-0.0020779915461003095
4.00800e-06	-0.002076969186744022
4.00825e-06	-0.0020759468273877377
4.00850e-06	-0.002070593379889417
4.00875e-06	-0.002064434221322592
4.00900e-06	-0.002058275062755767
4.00925e-06	-0.002052115904188921
4.00950e-06	-0.002045956745622096
4.00975e-06	-0.002039797587055271
4.01000e-06	-0.002031028981280497
4.01025e-06	-0.002017265412701496
4.01050e-06	-0.0020035018441224954
4.01075e-06	-0.001989738275543448
4.01100e-06	-0.001975974706964447
4.01125e-06	-0.001962211138385446
4.01150e-06	-0.001948447569806399
4.01175e-06	-0.0019285494948015794
4.01200e-06	-0.0019075102193490848
4.01225e-06	-0.0018864709438965188
4.01250e-06	-0.0018654316684440242
4.01275e-06	-0.0018443923929914582
4.01300e-06	-0.0018233531175389636
4.01325e-06	-0.001802313842086469
4.01350e-06	-0.0017812745666339032
4.01375e-06	-0.0017573311034876037
4.01400e-06	-0.0017328473751486394
4.01425e-06	-0.001708363646809592
4.01450e-06	-0.0016838799184706278
4.01475e-06	-0.0016593961901316635
4.01500e-06	-0.0016349124617926164
4.01525e-06	-0.001610428733453652
4.01550e-06	-0.0015859450051146878
4.01575e-06	-0.0015626776154609606
4.01600e-06	-0.0015396365009394373
4.01625e-06	-0.0015165953864179139
4.01650e-06	-0.0014958951633714582
4.01675e-06	-0.001475630415685848
4.01700e-06	-0.0014553656680001696
4.01725e-06	-0.001436534385221281
4.01750e-06	-0.00142044701842105
4.01775e-06	-0.0014043596516207647
4.01800e-06	-0.001388272284820534
4.01825e-06	-0.0013752411783582788
4.01850e-06	-0.0013627786271183586
4.01875e-06	-0.0013503160758784806
4.01900e-06	-0.0013378535246386027
4.01925e-06	-0.0013253909733986827
4.01950e-06	-0.0013129284221588048
4.01975e-06	-0.0013004658709189268
4.02000e-06	-0.0012880033196790066
4.02025e-06	-0.0012755407684391287
4.02050e-06	-0.0012630782171992507
4.02075e-06	-0.0012531491670087246
4.02100e-06	-0.001243691423282054
4.02125e-06	-0.0012342336795553833
4.02150e-06	-0.0012247759358286804
4.02175e-06	-0.0012153181921020096
4.02200e-06	-0.001205860448375307
4.02225e-06	-0.0011964027046486362
4.02250e-06	-0.0011869449609219654
4.02275e-06	-0.0011774872171952627
4.02300e-06	-0.001168029473468592
4.02325e-06	-0.0011598064145054738
4.02350e-06	-0.0011518130435899923
4.02375e-06	-0.001143819672674538
4.02400e-06	-0.0011358263017590834
4.02425e-06	-0.001127832930843602
4.02450e-06	-0.0011198395599281473
4.02475e-06	-0.001111846189012693
4.02500e-06	-0.0011043661955793796
4.02525e-06	-0.0010978689012477907
4.02550e-06	-0.0010913716069162018
4.02575e-06	-0.001084874312584591
4.02600e-06	-0.0010783770182530021
4.02625e-06	-0.0010718797239213911
4.02650e-06	-0.0010653824295898022
4.02675e-06	-0.0010588851352582136
4.02700e-06	-0.001053446922254936
4.02725e-06	-0.0010482057298433047
4.02750e-06	-0.0010438678132861658
4.02775e-06	-0.0010396979328736327
4.02800e-06	-0.0010390848637082152
4.02825e-06	-0.001039133467105078
4.02850e-06	-0.0010443622262445355
4.02875e-06	-0.0010505546482508148
4.02900e-06	-0.0010615428000410744
4.02925e-06	-0.0010734231000488752
4.02950e-06	-0.0010897767872265424
4.02975e-06	-0.0011069626573189046
4.03000e-06	-0.0011297156611551995
4.03025e-06	-0.0011535043172632808
4.03050e-06	-0.001183308481372705
4.03075e-06	-0.001214231708686611
4.03100e-06	-0.0012514839199036923
4.03125e-06	-0.0012899135101563611
4.03150e-06	-0.0013283431004088998
4.03175e-06	-0.001373476219537728
4.03200e-06	-0.0014198563941945942
4.03225e-06	-0.0014662365688513032
4.03250e-06	-0.0015188869813532184
4.03275e-06	-0.001572703844378629
4.03300e-06	-0.0016265207074038573
4.03325e-06	-0.0016843283434365495
4.03350e-06	-0.0017428783818117083
4.03375e-06	-0.0018014284201866688
4.03400e-06	-0.0018623898116533074
4.03425e-06	-0.001923799786434691
4.03450e-06	-0.0019852097612158663
4.03475e-06	-0.002047033068746333
4.03500e-06	-0.0021089332684477214
4.03525e-06	-0.0021708334681491102
4.03550e-06	-0.0022304423916361597
4.03575e-06	-0.002289625069675035
4.03600e-06	-0.00234880774771391
4.03625e-06	-0.002403557265972672
4.03650e-06	-0.002457482084806341
4.03675e-06	-0.0025114069036400104
4.03700e-06	-0.0025580894181379066
4.03725e-06	-0.0026034246488658972
4.03750e-06	-0.002648759879593888
4.03775e-06	-0.002686116770719403
4.03800e-06	-0.002721989453648442
4.03825e-06	-0.002757862136577481
4.03850e-06	-0.0027871585982946682
4.03875e-06	-0.0028152316874919463
4.03900e-06	-0.0028433047766893193
4.03925e-06	-0.0028713778658865973
4.03950e-06	-0.0028911041561481728
4.03975e-06	-0.0029092776938309762
4.04000e-06	-0.002927451231513718
4.04025e-06	-0.00294562476919646
4.04050e-06	-0.002953295385288602
4.04075e-06	-0.0029590121459314284
4.04100e-06	-0.002964728906574255
4.04125e-06	-0.002970445667217101
4.04150e-06	-0.0029761624278599277
4.04175e-06	-0.002981879188502754
4.04200e-06	-0.0029875959491456002
4.04225e-06	-0.0029933127097884265
4.04250e-06	-0.0029990294704312533
4.04275e-06	-0.003004746231074099
4.04300e-06	-0.0030008510961761297
4.04325e-06	-0.00299516786314597
4.04350e-06	-0.0029894846301158295
4.04375e-06	-0.0029838013970856893
4.04400e-06	-0.0029781181640555297
4.04425e-06	-0.002972434931025389
4.04450e-06	-0.002966751697995249
4.04475e-06	-0.0029610684649650893
4.04500e-06	-0.0029553852319349487
4.04525e-06	-0.002949701998904808
4.04550e-06	-0.002942019544763142
4.04575e-06	-0.0029339651760995626
4.04600e-06	-0.0029259108074359834
4.04625e-06	-0.002917856438772377
4.04650e-06	-0.0029098020701087976
4.04675e-06	-0.0029017477014452184
4.04700e-06	-0.002893693332781612
4.04725e-06	-0.0028856389641180326
4.04750e-06	-0.002881545635529768
4.04775e-06	-0.002878189178074684
4.04800e-06	-0.0028748327206196004
4.04825e-06	-0.0028714762631645054
4.04850e-06	-0.0028681198057094216
4.04875e-06	-0.002864763348254338
4.04900e-06	-0.002861406890799243
4.04925e-06	-0.002858050433344159
4.04950e-06	-0.0028619090338986965
4.04975e-06	-0.0028671098495962255
4.05000e-06	-0.002872310665293736
4.05025e-06	-0.0028775114809912474
4.05050e-06	-0.002882712296688776
4.05075e-06	-0.002887913112386287
4.05100e-06	-0.0028931139280837983
4.05125e-06	-0.002898314743781327
4.05150e-06	-0.002903515559478838
4.05175e-06	-0.0029151780598435165
4.05200e-06	-0.002928042625527252
4.05225e-06	-0.002940907191210988
4.05250e-06	-0.0029537717568947673
4.05275e-06	-0.002966636322578503
4.05300e-06	-0.0029795008882622384
4.05325e-06	-0.002992365453946018
4.05350e-06	-0.0030052300196297538
4.05375e-06	-0.0030180945853134893
4.05400e-06	-0.0030334191736297637
4.05425e-06	-0.003049201399240718
4.05450e-06	-0.0030649836248516724
4.05475e-06	-0.0030807658504626804
4.05500e-06	-0.0030965480760736346
4.05525e-06	-0.003112330301684589
4.05550e-06	-0.003128112527295597
4.05575e-06	-0.0031422148638401127
4.05600e-06	-0.0031560046911103265
4.05625e-06	-0.003169794518380494
4.05650e-06	-0.003183584345650661
4.05675e-06	-0.003197374172920875
4.05700e-06	-0.0032111640001910424
4.05725e-06	-0.0032249538274612094
4.05750e-06	-0.0032351702110779593
4.05775e-06	-0.0032447218280113772
4.05800e-06	-0.003254273444944795
4.05825e-06	-0.0032638250618782453
4.05850e-06	-0.003273376678811663
4.05875e-06	-0.003282928295745081
4.05900e-06	-0.003292479912678531
4.05925e-06	-0.003302031529611949
4.05950e-06	-0.0033113639316834018
4.05975e-06	-0.003320276716114341
4.06000e-06	-0.0033291895005452495
4.06025e-06	-0.003338102284976189
4.06050e-06	-0.0033470150694070973
4.06075e-06	-0.0033559278538380062
4.06100e-06	-0.003364840638268945
4.06125e-06	-0.003373753422699854
4.06150e-06	-0.003382666207130763
4.06175e-06	-0.003391933655649931
4.06200e-06	-0.0034012670822262145
4.06225e-06	-0.003410600508802498
4.06250e-06	-0.003419933935378813
4.06275e-06	-0.0034292673619550967
4.06300e-06	-0.0034386007885313804
4.06325e-06	-0.0034479342151076957
4.06350e-06	-0.0034572676416839794
4.06375e-06	-0.003466601068260263
4.06400e-06	-0.0034759344948365784
4.06425e-06	-0.0034849239135754453
4.06450e-06	-0.0034932548379232277
4.06475e-06	-0.0035015857622709818
4.06500e-06	-0.0035099166866187355
4.06525e-06	-0.003518247610966518
4.06550e-06	-0.003526578535314272
4.06575e-06	-0.0035349094596620256
4.06600e-06	-0.003543240384009808
4.06625e-06	-0.003551571308357562
4.06650e-06	-0.0035599022327053157
4.06675e-06	-0.003568233157053098
4.06700e-06	-0.0035751054815391773
4.06725e-06	-0.003581297547365095
4.06750e-06	-0.0035869266915048662
4.06775e-06	-0.0035912045578012
4.06800e-06	-0.0035902970302291257
4.06825e-06	-0.0035884684947691836
4.06850e-06	-0.003578447902494956
4.06875e-06	-0.0035669033442753055
4.06900e-06	-0.0035460568197305765
4.06925e-06	-0.003523479853097177
4.06950e-06	-0.0035009028864637012
4.06975e-06	-0.0034665373805926364
4.07000e-06	-0.003429978856197608
4.07025e-06	-0.003393420331802455
4.07050e-06	-0.0033428826994827696
4.07075e-06	-0.0032897445377837926
4.07100e-06	-0.003236606376084635
4.07125e-06	-0.0031737407440310668
4.07150e-06	-0.003109065513498182
4.07175e-06	-0.0030393003321123294
4.07200e-06	-0.002964932762062194
4.07225e-06	-0.0028861487724765812
4.07250e-06	-0.002803258015595842
4.07275e-06	-0.0027167647540644532
4.07300e-06	-0.0026271952216561714
4.07325e-06	-0.0025350760082481967
4.07350e-06	-0.0024409265132502578
4.07375e-06	-0.0023450939942994994
4.07400e-06	-0.0022476762280520205
4.07425e-06	-0.0021488571114220536
4.07450e-06	-0.002049098908152949
4.07475e-06	-0.0019489851956048755
4.07500e-06	-0.0018491134971047622
4.07525e-06	-0.0017500812743437267
4.07550e-06	-0.0016524816519127004
4.07575e-06	-0.0015567997651787027
4.07600e-06	-0.0014633645699536515
4.07625e-06	-0.0013725591833407158
4.07650e-06	-0.0012849403284850155
4.07675e-06	-0.0012011413875799993
4.07700e-06	-0.001121804114919502
4.07725e-06	-0.0010475700936014045
4.07750e-06	-0.000979076716856681
4.07775e-06	-0.0009168180801076189
4.07800e-06	-0.0008609863412020088
4.07825e-06	-0.0008116183760727508
4.07850e-06	-0.0007688034078076854
4.07875e-06	-0.0007326820826335737
4.07900e-06	-0.0007034022297495606
4.07925e-06	-0.0006811114512255109
4.07950e-06	-0.0006659545551282005
4.07975e-06	-0.0006579867130683743
4.08000e-06	-0.0006570739103039999
4.08025e-06	-0.0006629848960062644
4.08050e-06	-0.0006755211610017099
4.08075e-06	-0.0006945164908005801
4.08100e-06	-0.0007198090772355428
4.08125e-06	-0.0007512371030091012
4.08150e-06	-0.0007886368367921475
4.08175e-06	-0.0008317885370280812
4.08200e-06	-0.000880353941488465
4.08225e-06	-0.0009358635206893332
4.08250e-06	-0.0009925085969455785
4.08275e-06	-0.0010562727924054126
4.08300e-06	-0.0011213613555386645
4.08325e-06	-0.001192369136143528
4.08350e-06	-0.0012644780670516716
4.08375e-06	-0.0013420160760153595
4.08400e-06	-0.0014205640547890726
4.08425e-06	-0.0014991120335627857
4.08450e-06	-0.0015807110283685235
4.08475e-06	-0.0016628776027982442
4.08500e-06	-0.0017455942405683858
4.08525e-06	-0.0018284132064619052
4.08550e-06	-0.0019101620812528432
4.08575e-06	-0.001991711887307801
4.08600e-06	-0.0020704119942313443
4.08625e-06	-0.0021485819724550853
4.08650e-06	-0.002220428283529368
4.08675e-06	-0.0022910982046444087
4.08700e-06	-0.0023617681257594495
4.08725e-06	-0.0024212979882097152
4.08750e-06	-0.00247875546878933
4.08775e-06	-0.0025362129493689445
4.08800e-06	-0.002585945985866199
4.08825e-06	-0.0026281952103169963
4.08850e-06	-0.0026693195436340777
4.08875e-06	-0.002710443876951298
4.08900e-06	-0.002741327124975972
4.08925e-06	-0.0027703052268851325
4.08950e-06	-0.002799283328794391
4.08975e-06	-0.002817725028273893
4.09000e-06	-0.0028342066438769185
4.09025e-06	-0.0028506882594798886
4.09050e-06	-0.0028526131548432757
4.09075e-06	-0.0028518300677784505
4.09100e-06	-0.0028510469807136282
4.09125e-06	-0.002850263893648806
4.09150e-06	-0.0028494808065839808
4.09175e-06	-0.0028486977195191585
4.09200e-06	-0.0028479146324543363
4.09225e-06	-0.0028406732391873394
4.09250e-06	-0.002821069457785224
4.09275e-06	-0.0028014656763831088
4.09300e-06	-0.0027818618949809267
4.09325e-06	-0.0027622581135788114
4.09350e-06	-0.0027426543321766956
4.09375e-06	-0.002723050550774514
4.09400e-06	-0.0027034467693723982
4.09425e-06	-0.0026780020691287492
4.09450e-06	-0.002651470784453747
4.09475e-06	-0.0026239275167237734
4.09500e-06	-0.002596195990080642
4.09525e-06	-0.0025679383500355995
4.09550e-06	-0.0025395828372675694
4.09575e-06	-0.002511390164449803
4.09600e-06	-0.0024832277847006835
4.09625e-06	-0.002456282042193705
4.09650e-06	-0.0024295626303585402
4.09675e-06	-0.0024054264745895235
4.09700e-06	-0.0023817708811942903
4.09725e-06	-0.002358115287798977
4.09750e-06	-0.002341285917639351
4.09775e-06	-0.002325726427800572
4.09800e-06	-0.0023101669379617406
4.09825e-06	-0.0022946074481229616
4.09850e-06	-0.0022790479582841298
4.09875e-06	-0.002263488468445351
4.09900e-06	-0.0022584441140149334
4.09925e-06	-0.0022553558871626057
4.09950e-06	-0.002252267660310288
4.09975e-06	-0.00224917943345797
4.10000e-06	-0.002246091206605642
4.10025e-06	-0.0022430029797533245
4.10050e-06	-0.002251997129247188
4.10075e-06	-0.002263238959694369
4.10100e-06	-0.0022744807901415123
4.10125e-06	-0.002285722620588655
4.10150e-06	-0.0022969644510358366
4.10175e-06	-0.0023082062814829794
4.10200e-06	-0.0023194481119301227
4.10225e-06	-0.0023306899423773037
4.10250e-06	-0.0023458132726474697
4.10275e-06	-0.002368366508816515
4.10300e-06	-0.0023909197449854844
4.10325e-06	-0.0024134729811544535
4.10350e-06	-0.002436026217323499
4.10375e-06	-0.0024585794534924678
4.10400e-06	-0.002481132689661437
4.10425e-06	-0.0025036859258304824
4.10450e-06	-0.0025262391619994516
4.10475e-06	-0.0025509966932268156
4.10500e-06	-0.0025761642888220224
4.10525e-06	-0.002601331884417144
4.10550e-06	-0.002626499480012265
4.10575e-06	-0.002651667075607472
4.10600e-06	-0.0026768346712025934
4.10625e-06	-0.0026983936130934734
4.10650e-06	-0.0027192812381868054
4.10675e-06	-0.002740168863280067
4.10700e-06	-0.002761056488373399
4.10725e-06	-0.0027819441134666607
4.10750e-06	-0.002802831738559922
4.10775e-06	-0.002814579386595578
4.10800e-06	-0.0028246267273611732
4.10825e-06	-0.0028346740681267687
4.10850e-06	-0.002844721408892398
4.10875e-06	-0.0028547687496579934
4.10900e-06	-0.002864816090423589
4.10925e-06	-0.0028748634311892185
4.10950e-06	-0.002884910771954814
4.10975e-06	-0.0028949581127204094
4.11000e-06	-0.0029050054534860387
4.11025e-06	-0.002915052794251634
4.11050e-06	-0.0029251001350172295
4.11075e-06	-0.0029351474757828592
4.11100e-06	-0.0029451948165484547
4.11125e-06	-0.002955242157314084
4.11150e-06	-0.0029576979826982062
4.11175e-06	-0.0029587415606871486
4.11200e-06	-0.0029597851386760944
4.11225e-06	-0.002960828716665037
4.11250e-06	-0.0029618722946539795
4.11275e-06	-0.0029629158726429254
4.11300e-06	-0.002963959450631868
4.11325e-06	-0.0029650030286208105
4.11350e-06	-0.0029660466066097563
4.11375e-06	-0.002967090184598699
4.11400e-06	-0.0029681337625876414
4.11425e-06	-0.0029691773405765873
4.11450e-06	-0.00297022091856553
4.11475e-06	-0.0029712644965544724
4.11500e-06	-0.002972308074543418
4.11525e-06	-0.002971283539356672
4.11550e-06	-0.0029698742736782914
4.11575e-06	-0.0029684650079999154
4.11600e-06	-0.0029670557423215394
4.11625e-06	-0.0029655566643739624
4.11650e-06	-0.0029640408786761148
4.11675e-06	-0.002962525092978267
4.11700e-06	-0.0029610093072804143
4.11725e-06	-0.0029596188170597578
4.11750e-06	-0.0029582516355202222
4.11775e-06	-0.0029551194220411177
4.11800e-06	-0.0029516588601844903
4.11825e-06	-0.0029420785982758103
4.11850e-06	-0.0029313598903492025
4.11875e-06	-0.0029127928333975935
4.11900e-06	-0.002892765750363277
4.11925e-06	-0.0028727386673288923
4.11950e-06	-0.0028440665071940113
4.11975e-06	-0.0028137861058845776
4.12000e-06	-0.002783505704575246
4.12025e-06	-0.0027417825985186655
4.12050e-06	-0.0026979308094314597
4.12075e-06	-0.0026540790203444025
4.12100e-06	-0.0026015202507638797
4.12125e-06	-0.002547341724138659
4.12150e-06	-0.002487518668166574
4.12175e-06	-0.002426645562044557
4.12200e-06	-0.0023598392512925144
4.12225e-06	-0.002291929188212025
4.12250e-06	-0.002219609489947082
4.12275e-06	-0.0021440120477991924
4.12300e-06	-0.0020658906904864383
4.12325e-06	-0.0019857083583675016
4.12350e-06	-0.0019039222257435304
4.12375e-06	-0.001820821543520706
4.12400e-06	-0.0017364530939665908
4.12425e-06	-0.001650941034534568
4.12450e-06	-0.0015646740702936449
4.12475e-06	-0.0014781575383413955
4.12500e-06	-0.001391909872626175
4.12525e-06	-0.0013064496668867575
4.12550e-06	-0.001222291036229266
4.12575e-06	-0.001139843996237501
4.12600e-06	-0.001059365861686313
4.12625e-06	-0.0009811628287427119
4.12650e-06	-0.0009057064569366588
4.12675e-06	-0.0008335415215345715
4.12700e-06	-0.0007652209736269106
4.12725e-06	-0.0007012976296296813
4.12750e-06	-0.0006423274286738712
4.12775e-06	-0.0005889212723442443
4.12800e-06	-0.0005416896264607761
4.12825e-06	-0.0005010253463087538
4.12850e-06	-0.0004670834851658744
4.12875e-06	-0.00043993869088566727
4.12900e-06	-0.00041965729851352047
4.12925e-06	-0.00040630565565311083
4.12950e-06	-0.00039995188583652973
4.12975e-06	-0.00040069862392083183
4.13000e-06	-0.000408648213716949
4.13025e-06	-0.0004237666754449948
4.13050e-06	-0.0004458710270027297
4.13075e-06	-0.0004747278815326419
4.13100e-06	-0.0005100987867868952
4.13125e-06	-0.000551745221466088
4.13150e-06	-0.0005994297793636111
4.13175e-06	-0.0006529367112349406
4.13200e-06	-0.0007120500369240014
4.13225e-06	-0.0007764685283059169
4.13250e-06	-0.0008457975055229437
4.13275e-06	-0.0009212918077934836
4.13300e-06	-0.0009977916336026344
4.13325e-06	-0.0010802922440939914
4.13350e-06	-0.001163909178810693
4.13375e-06	-0.001252942725837567
4.13400e-06	-0.0013429839236742713
4.13425e-06	-0.0014330251215106701
4.13450e-06	-0.0015261346598228716
4.13475e-06	-0.0016198150006198982
4.13500e-06	-0.0017138154264547273
4.13525e-06	-0.0018078753976159137
4.13550e-06	-0.00190041042515514
4.13575e-06	-0.0019926617678764236
4.13600e-06	-0.002081549518421583
4.13625e-06	-0.0021698115408948
4.13650e-06	-0.002252709071620244
4.13675e-06	-0.0023346086475096316
4.13700e-06	-0.0024067463986206005
4.13725e-06	-0.002477068160313164
4.13750e-06	-0.002547389922005966
4.13775e-06	-0.0026037635274649552
4.13800e-06	-0.0026575423614850534
4.13825e-06	-0.0027113211955053338
4.13850e-06	-0.002752036712274842
4.13875e-06	-0.0027903220639436373
4.13900e-06	-0.002828607415612562
4.13925e-06	-0.0028525618046543254
4.13950e-06	-0.0028738502088955296
4.13975e-06	-0.002895138613136806
4.14000e-06	-0.002902779086055836
4.14025e-06	-0.002907880638288936
4.14050e-06	-0.002912982190522053
4.14075e-06	-0.0029059109575056154
4.14100e-06	-0.0028965752247972093
4.14125e-06	-0.0028872394920888343
4.14150e-06	-0.0028662994907027403
4.14175e-06	-0.0028432007505968344
4.14200e-06	-0.0028201020104910066
4.14225e-06	-0.0027890537230535763
4.14250e-06	-0.0027565265836430896
4.14275e-06	-0.002718708274632695
4.14300e-06	-0.0026799056508839156
4.14325e-06	-0.0026364670454005136
4.14350e-06	-0.0025921660095865264
4.14375e-06	-0.002544135948723841
