Time(s)	Current(A)
7.25000e-06	0.0017439536224922586
7.25025e-06	0.0017866591409293954
7.25050e-06	0.0018224522772690302
7.25075e-06	0.001858245413608786
7.25100e-06	0.0018940385499484208
7.25125e-06	0.0019298316862880554
7.25150e-06	0.0019656248226278114
7.25175e-06	0.002001417958967446
7.25200e-06	0.0020372110953070805
7.25225e-06	0.0020730042316468365
7.25250e-06	0.002108797367986471
7.25275e-06	0.002144166015168441
7.25300e-06	0.0021653409377540003
7.25325e-06	0.0021865158603394876
7.25350e-06	0.002207690782924975
7.25375e-06	0.002228865705510534
7.25400e-06	0.0022500406280960214
7.25425e-06	0.0022712155506815087
7.25450e-06	0.002292390473267068
7.25475e-06	0.0023135653958525552
7.25500e-06	0.0023347403184381145
7.25525e-06	0.0023556570577471644
7.25550e-06	0.0023679408738042575
7.25575e-06	0.0023802246898613918
7.25600e-06	0.002392508505918485
7.25625e-06	0.002404792321975578
7.25650e-06	0.0024170761380327126
7.25675e-06	0.0024293599540898057
7.25700e-06	0.002441643770146899
7.25725e-06	0.002453927586204033
7.25750e-06	0.002466211402261126
7.25775e-06	0.0024784952183182192
7.25800e-06	0.002490779034375354
7.25825e-06	0.002503062850432447
7.25850e-06	0.0025153466664895397
7.25875e-06	0.0025276304825466744
7.25900e-06	0.0025399142986037675
7.25925e-06	0.002552198114660902
7.25950e-06	0.002564277904113033
7.25975e-06	0.0025695356172284237
7.26000e-06	0.002574793330343832
7.26025e-06	0.0025800510434592226
7.26050e-06	0.0025853087565746134
7.26075e-06	0.0025905664696900216
7.26100e-06	0.0025958241828054123
7.26125e-06	0.0026010818959208027
7.26150e-06	0.0026063396090362113
7.26175e-06	0.002611597322151602
7.26200e-06	0.0026168550352669924
7.26225e-06	0.002622112748382401
7.26250e-06	0.0026273704614977918
7.26275e-06	0.002632628174613182
7.26300e-06	0.0026378858877285907
7.26325e-06	0.002643143600843981
7.26350e-06	0.0026484013139593896
7.26375e-06	0.002653249554447382
7.26400e-06	0.0026444061809401207
7.26425e-06	0.0026355628074328295
7.26450e-06	0.0026267194339255682
7.26475e-06	0.0026178760604183065
7.26500e-06	0.0026090326869110153
7.26525e-06	0.002600189313403754
7.26550e-06	0.0025913459398964928
7.26575e-06	0.0025825025663892016
7.26600e-06	0.0025736591928819403
7.26625e-06	0.002564815819374679
7.26650e-06	0.0025556098890652463
7.26675e-06	0.0025342810781241567
7.26700e-06	0.0025129522671830675
7.26725e-06	0.002491623456241906
7.26750e-06	0.0024702946453008167
7.26775e-06	0.002448965834359655
7.26800e-06	0.002427637023418566
7.26825e-06	0.0024063082124774764
7.26850e-06	0.002384979401536315
7.26875e-06	0.0023636505905952256
7.26900e-06	0.0023423217796541365
7.26925e-06	0.0023209300813618887
7.26950e-06	0.002297435606772064
7.26975e-06	0.0022739411321822394
7.27000e-06	0.002250446657592335
7.27025e-06	0.00222695218300251
7.27050e-06	0.0022034577084126855
7.27075e-06	0.0021799632338227815
7.27100e-06	0.002156468759232957
7.27125e-06	0.002132974284643132
7.27150e-06	0.0021094798100532277
7.27175e-06	0.002086159528496572
7.27200e-06	0.0020686637724589797
7.27225e-06	0.0020511680164214466
7.27250e-06	0.002033672260383913
7.27275e-06	0.0020161765043463205
7.27300e-06	0.0019986807483087874
7.27325e-06	0.0019811849922712543
7.27350e-06	0.0019636892362336613
7.27375e-06	0.0019461934801961282
7.27400e-06	0.001928697724158595
7.27425e-06	0.0019111893918514183
7.27450e-06	0.0018932605444309236
7.27475e-06	0.001875331697010429
7.27500e-06	0.0018574028495898737
7.27525e-06	0.001839474002169379
7.27550e-06	0.0018215451547488844
7.27575e-06	0.001803616307328329
7.27600e-06	0.0017829108149396743
7.27625e-06	0.0017620032620321129
7.27650e-06	0.0017410957091246223
7.27675e-06	0.0017201881562171318
7.27700e-06	0.0016992806033095703
7.27725e-06	0.0016783730504020798
7.27750e-06	0.001664390878051103
7.27775e-06	-0.003034710016832716
7.27800e-06	-0.014662259347750705
7.27825e-06	-0.013244311415619254
7.27850e-06	-0.010755889185434837
7.27875e-06	-0.0059204730479525906
7.27900e-06	0.003230547564035977
7.27925e-06	0.003838818425835445
7.27950e-06	0.00309559633050788
7.27975e-06	2.187135168704897e-05
7.28000e-06	-0.007571284029226312
7.28025e-06	-0.008534486564515598
7.28050e-06	-0.005045425074275423
7.28075e-06	-0.0012662147837999684
7.28100e-06	0.002799526250623136
7.28125e-06	0.004468384500063287
7.28150e-06	0.0035962517129785026
7.28175e-06	0.000857058810640768
7.28200e-06	-0.0023886285759855113
7.28225e-06	-0.0034643219995670552
7.28250e-06	-0.0023009720312405953
7.28275e-06	9.007248056700553e-05
7.28300e-06	0.002638915993561292
7.28325e-06	0.0036576259515087393
7.28350e-06	0.003091044059901031
7.28375e-06	0.0013606612328239103
7.28400e-06	-0.0006818922407092766
7.28425e-06	-0.0013607168791400105
7.28450e-06	-0.0006332096963293839
7.28475e-06	0.0008665639748534515
7.28500e-06	0.0024679797454317163
7.28525e-06	0.0031134002195309213
7.28550e-06	0.002768044150298969
7.28575e-06	0.0016957244360268292
7.28600e-06	0.0004296829941574386
7.28625e-06	1.9433638713345263e-05
7.28650e-06	0.000491364608324343
7.28675e-06	0.0014480332174390668
7.28700e-06	0.0024691469423663405
7.28725e-06	0.002892049312615477
7.28750e-06	0.002694840399569269
7.28775e-06	0.002042659975437495
7.28800e-06	0.0012694022752020907
7.28825e-06	0.0010323134102625672
7.28850e-06	0.0013477289120489362
7.28875e-06	0.0019665116686610217
7.28900e-06	0.0026252379263183244
7.28925e-06	0.00290870155714042
7.28950e-06	0.002803087097545362
7.28975e-06	0.0024117386474100744
7.29000e-06	0.0019436947842123738
7.29025e-06	0.0018105143610262307
7.29050e-06	0.0020222727425356973
7.29075e-06	0.0024227610376916014
7.29100e-06	0.002846836736806354
7.29125e-06	0.0030343013460766804
7.29150e-06	0.0029763991380150497
7.29175e-06	0.0027377616125327533
7.29200e-06	0.0024492183974034708
7.29225e-06	0.0023684400904195936
7.29250e-06	0.0025016130470137702
7.29275e-06	0.0027510554289146417
7.29300e-06	0.0030139537708366807
7.29325e-06	0.003127940680823241
7.29350e-06	0.0030877896704754296
7.29375e-06	0.0029340497512778054
7.29400e-06	0.0027487027364395686
7.29425e-06	0.002693172328822023
7.29450e-06	0.0027713456588347105
7.29475e-06	0.0029220496045510966
7.29500e-06	0.003080901832104986
7.29525e-06	0.003146223569619761
7.29550e-06	0.0031147740207512838
7.29575e-06	0.003010114086730055
7.29600e-06	0.0028886230568714658
7.29625e-06	0.0028476669892780904
7.29650e-06	0.0028897276192370175
7.29675e-06	0.0029752402042900862
7.29700e-06	0.0030689144914903778
7.29725e-06	0.0031033001416331356
7.29750e-06	0.003076427292493114
7.29775e-06	0.003003713164733927
7.29800e-06	0.0029204632875269457
7.29825e-06	0.0028877180553040747
7.29850e-06	0.0029070514329405284
7.29875e-06	0.002953741698385769
7.29900e-06	0.0030055836530865935
7.29925e-06	0.0030204445075918116
7.29950e-06	0.002997117220945929
7.29975e-06	0.0029453575263004156
7.30000e-06	0.002887076640149519
7.30025e-06	0.0028607068837401043
7.30050e-06	0.0028672539747514846
7.30075e-06	0.0028913458519039797
7.30100e-06	0.0029187766777707385
7.30125e-06	0.0029234209531047366
7.30150e-06	0.0029045470861696152
7.30175e-06	0.002868411507417286
7.30200e-06	0.002828340887983168
7.30225e-06	0.00280875248630105
7.30250e-06	0.0028102675685330557
7.30275e-06	0.002822139375551792
7.30300e-06	0.002835860318212958
7.30325e-06	0.002832892754241026
7.30350e-06	0.002812525869297076
7.30375e-06	0.0027781327008378994
7.30400e-06	0.002740422518469016
7.30425e-06	0.0027131570082526957
7.30450e-06	0.0026968792474095136
7.30475e-06	0.0026846521164835017
7.30500e-06	0.002672940036615781
7.30525e-06	0.0026447803596252152
7.30550e-06	0.0026112271355681425
7.30575e-06	0.002565772823893907
7.30600e-06	0.002516415870652809
7.30625e-06	0.002474567439155405
7.30650e-06	0.0024351812253983075
7.30675e-06	0.0023981703548673254
7.30700e-06	0.0023619384142551285
7.30725e-06	0.002314853710598329
7.30750e-06	0.002264210135220395
7.30775e-06	0.0022059902713408206
7.30800e-06	0.0021452859674354527
7.30825e-06	0.0020895903546000586
7.30850e-06	0.002035537207276629
7.30875e-06	0.0019822816562873056
7.30900e-06	0.001929287655561678
7.30925e-06	0.00187629365483623
7.30950e-06	0.0018165159941340863
7.30975e-06	0.0017545138146105672
7.31000e-06	0.0016925116350872582
7.31025e-06	0.001636195171323252
7.31050e-06	0.0015817431851072434
7.31075e-06	0.0015272911988912347
7.31100e-06	0.0014754679141565326
7.31125e-06	0.0014245066413655046
7.31150e-06	0.0013730987917745193
7.31175e-06	0.0013215444993339303
7.31200e-06	0.0012741360333871298
7.31225e-06	0.001228087079723572
7.31250e-06	0.0011895363030721632
7.31275e-06	0.0011534443518844632
7.31300e-06	0.0011216908320646625
7.31325e-06	0.0010928344590271524
7.31350e-06	0.0010663525822323158
7.31375e-06	0.001042689934194671
7.31400e-06	0.0010226773940809019
7.31425e-06	0.0010078835002033848
7.31450e-06	0.0009984101192434154
7.31475e-06	0.0009937274442840395
7.31500e-06	0.0009932076848353938
7.31525e-06	0.000995814810580827
7.31550e-06	0.0010014096662808486
7.31575e-06	0.0010114758623207098
7.31600e-06	0.0010227624441871911
7.31625e-06	0.0010403881109654367
7.31650e-06	0.0010600925101302027
7.31675e-06	0.0010852377559083728
7.31700e-06	0.001112167180984023
7.31725e-06	0.001142717086759574
7.31750e-06	0.0011744542317961406
7.31775e-06	0.0012103547806032364
7.31800e-06	0.0012476206056885784
7.31825e-06	0.0012848864307740465
7.31850e-06	0.0013275960568579648
7.31875e-06	0.0013720908310506873
7.31900e-06	0.0014165856052432589
7.31925e-06	0.0014610803794358306
7.31950e-06	0.001505575153628553
7.31975e-06	0.001551569300222004
7.32000e-06	0.0015980551256637818
7.32025e-06	0.001644540951105717
7.32050e-06	0.0016910267765474947
7.32075e-06	0.0017375126019892723
7.32100e-06	0.0017774363762962332
7.32125e-06	0.0018152083024413025
7.32150e-06	0.0018529802285863718
7.32175e-06	0.001890752154731569
7.32200e-06	0.0019285240808766383
7.32225e-06	0.0019662960070217076
7.32250e-06	0.002004067933166905
7.32275e-06	0.002041839859311974
7.32300e-06	0.0020691830139448297
7.32325e-06	0.0020931063334764344
7.32350e-06	0.002117029653008039
7.32375e-06	0.0021409529725397248
7.32400e-06	0.0021648762920713294
7.32425e-06	0.002188799611602934
7.32450e-06	0.00221272293113462
7.32475e-06	0.0022366462506662244
7.32500e-06	0.0022516464345958298
7.32525e-06	0.0022637205162221925
7.32550e-06	0.002275794597848514
7.32575e-06	0.0022878686794748355
7.32600e-06	0.0022999427611011983
7.32625e-06	0.0023120168427275198
7.32650e-06	0.0023240909243538413
7.32675e-06	0.0023361650059802036
7.32700e-06	0.0023482390876065256
7.32725e-06	0.002360313169232888
7.32750e-06	0.0023723872508592094
7.32775e-06	0.002384461332485531
7.32800e-06	0.0023965354141118936
7.32825e-06	0.002408609495738215
7.32850e-06	0.0024206835773645367
7.32875e-06	0.002432757658990899
7.32900e-06	0.002444831740617221
7.32925e-06	0.0024569058222435425
7.32950e-06	0.0024689799038699048
7.32975e-06	0.0024810539854962263
7.33000e-06	0.002493128067122548
7.33025e-06	0.0025052021487489105
7.33050e-06	0.002517276230375232
7.33075e-06	0.0025293503120015536
7.33100e-06	0.0025414243936279163
7.33125e-06	0.002553498475254238
7.33150e-06	0.0025655725568806
7.33175e-06	0.002577646638506922
7.33200e-06	0.00258088914354539
7.33225e-06	0.0025812355705970074
7.33250e-06	0.002581581997648624
7.33275e-06	0.0025819284247002405
7.33300e-06	0.0025822748517518586
7.33325e-06	0.002582621278803475
7.33350e-06	0.0025829677058550916
7.33375e-06	0.0025833141329067093
7.33400e-06	0.0025836605599583256
7.33425e-06	0.0025840069870099423
7.33450e-06	0.00258435341406156
7.33475e-06	0.0025846998411131767
7.33500e-06	0.002585046268164793
7.33525e-06	0.002585392695216411
7.33550e-06	0.0025857391222680274
7.33575e-06	0.0025860855493196454
7.33600e-06	0.0025864319763712618
7.33625e-06	0.0025867784034228785
7.33650e-06	0.002587124830474496
7.33675e-06	0.002587471257526113
7.33700e-06	0.002587817684577729
7.33725e-06	0.002588164111629347
7.33750e-06	0.0025885105386809636
7.33775e-06	0.0025888569657325803
7.33800e-06	0.002589203392784198
7.33825e-06	0.0025895498198358143
7.33850e-06	0.002589896246887431
7.33875e-06	0.0025902426739390486
7.33900e-06	0.0025871801754550564
7.33925e-06	0.0025829998115364516
7.33950e-06	0.0025788194476178325
7.33975e-06	0.0025746390836992278
7.34000e-06	0.0025704587197806087
7.34025e-06	0.002566278355862004
7.34050e-06	0.0025620979919433987
7.34075e-06	0.00255791762802478
7.34100e-06	0.002553737264106175
7.34125e-06	0.0025492938294586084
7.34150e-06	0.002544073888970314
7.34175e-06	0.0025388539484820375
7.34200e-06	0.002533634007993761
7.34225e-06	0.0025284140675054666
7.34250e-06	0.00252319412701719
7.34275e-06	0.002517974186528913
7.34300e-06	0.0025127542460406187
7.34325e-06	0.002507534305552342
7.34350e-06	0.0025023143650640656
7.34375e-06	0.0024852327124551214
7.34400e-06	0.0024642613304183165
7.34425e-06	0.00244328994838144
7.34450e-06	0.002422318566344635
7.34475e-06	0.0024013471843078297
7.34500e-06	0.0023803758022709538
7.34525e-06	0.0023594044202341485
7.34550e-06	0.0023384330381973433
7.34575e-06	0.002317461656160467
7.34600e-06	0.002296490274123662
7.34625e-06	0.002260502655134409
7.34650e-06	0.0022195908651507596
7.34675e-06	0.0021786790751672485
7.34700e-06	0.002137767285183738
7.34725e-06	0.0020968554952000883
7.34750e-06	0.002055943705216577
7.34775e-06	0.002015031915233066
7.34800e-06	0.0019741201252494165
7.34825e-06	0.0019332083352659056
7.34850e-06	0.001892296545282256
7.34875e-06	0.0018452759663184894
7.34900e-06	0.0017962521743260735
7.34925e-06	0.0017472283823334912
7.34950e-06	0.0016982045903410753
7.34975e-06	0.0016491807983486594
7.35000e-06	0.0016001570063560772
7.35025e-06	0.0015532702196517224
7.35050e-06	0.001507084206349267
7.35075e-06	0.001460898193046655
7.35100e-06	0.0014147121797441998
7.35125e-06	0.0013685261664417444
7.35150e-06	0.0013223401531391326
7.35175e-06	0.0012818683328317839
7.35200e-06	0.0012432703284136692
7.35225e-06	0.0012046723239954235
7.35250e-06	0.0011716710531137382
7.35275e-06	0.001140505080451164
7.35300e-06	0.0011093391077886953
7.35325e-06	0.00108074555425552
7.35350e-06	0.001052995556381325
7.35375e-06	0.0010252455585072241
7.35400e-06	0.0010001940013859287
7.35425e-06	0.0009760273253252399
7.35450e-06	0.0009518606492646328
7.35475e-06	0.0009303686123076051
7.35500e-06	0.0009097536513005462
7.35525e-06	0.000889138690293557
7.35550e-06	0.0008711422160000687
7.35575e-06	0.0008540044039906384
7.35600e-06	0.000836866591981266
7.35625e-06	0.0008197287799718937
7.35650e-06	0.0008025909679624634
7.35675e-06	0.0007854531559530911
7.35700e-06	0.0007683153439436608
7.35725e-06	0.0007511775319342885
7.35750e-06	0.0007340397199249161
7.35775e-06	0.0007179850163801746
7.35800e-06	0.0007051273239659639
7.35825e-06	0.0006922696315517532
7.35850e-06	0.0006794119391374989
7.35875e-06	0.000666554246723288
7.35900e-06	0.0006536965543090773
7.35925e-06	0.000640838861894823
7.35950e-06	0.0006279811694806123
7.35975e-06	0.0006151234770664015
7.36000e-06	0.0006022657846521471
7.36025e-06	0.0005929766555728904
7.36050e-06	0.0005848577408498932
7.36075e-06	0.0005767388261268686
7.36100e-06	0.0005686199114038713
7.36125e-06	0.0005605009966808742
7.36150e-06	0.0005523820819578495
7.36175e-06	0.0005442631672348524
7.36200e-06	0.0005361442525118278
7.36225e-06	0.0005280253377888305
7.36250e-06	0.0005199064230658333
7.36275e-06	0.0005117875083428087
7.36300e-06	0.0005036685936198116
7.36325e-06	0.0004955496788968144
7.36350e-06	0.0004874307641737897
7.36375e-06	0.00048399613111958475
7.36400e-06	0.0004820975822377954
7.36425e-06	0.00048019903335599955
7.36450e-06	0.0004783004844742101
7.36475e-06	0.0004764019355924207
7.36500e-06	0.0004745033867106249
7.36525e-06	0.0004726048378288355
7.36550e-06	0.0004707062889470461
7.36575e-06	0.00046880774006525025
7.36600e-06	0.0004669091911834608
7.36625e-06	0.000465010642301665
7.36650e-06	0.0004631120934198756
7.36675e-06	0.0004612135445380862
7.36700e-06	0.0004593149956562904
7.36725e-06	0.00046020889548404746
7.36750e-06	0.0004620185037529094
7.36775e-06	0.00046382811202177755
7.36800e-06	0.0004656377202906395
7.36825e-06	0.00046744732855950145
7.36850e-06	0.0004692569368283696
7.36875e-06	0.00047106654509723153
7.36900e-06	0.00047287615336609354
7.36925e-06	0.0004746857616349616
7.36950e-06	0.0004771796417498945
7.36975e-06	0.00047989791041072295
7.37000e-06	0.0004826161790715606
7.37025e-06	0.00048533444773238906
7.37050e-06	0.00048805271639322675
7.37075e-06	0.0004907709850540552
7.37100e-06	0.0004934892537148837
7.37125e-06	0.0004962075223757214
7.37150e-06	0.0004989257910365498
7.37175e-06	0.0005004832069463717
7.37200e-06	0.000501659952421956
7.37225e-06	0.0005028366978975363
7.37250e-06	0.0005040134433731166
7.37275e-06	0.0005051901888487009
7.37300e-06	0.0005063669343242812
7.37325e-06	0.0005075436797998614
7.37350e-06	0.0005087204252754458
7.37375e-06	0.000509897170751026
7.37400e-06	0.0005110739162266063
7.37425e-06	0.0005122506617021907
7.37450e-06	0.0005134274071777709
7.37475e-06	0.0005146041526533552
7.37500e-06	0.0005157808981289355
7.37525e-06	0.0005169576436045158
7.37550e-06	0.0005163897910188438
7.37575e-06	0.000515249844426493
7.37600e-06	0.0005141098978341421
7.37625e-06	0.0005129699512417874
7.37650e-06	0.0005118300046494367
7.37675e-06	0.0005106900580570859
7.37700e-06	0.0005095501114647312
7.37725e-06	0.0005084101648723804
7.37750e-06	0.0005072702182800297
7.37775e-06	0.000506130271687675
7.37800e-06	0.0005049903250953241
7.37825e-06	0.0005038503785029733
7.37850e-06	0.0005027104319106187
7.37875e-06	0.0005015704853182679
7.37900e-06	0.0005004305387259132
7.37925e-06	0.0004987483798976428
7.37950e-06	0.0004968884171514523
7.37975e-06	0.0004950284544052554
7.38000e-06	0.0004931684916590649
7.38025e-06	0.0004913085289128743
7.38050e-06	0.0004894485661666775
7.38075e-06	0.000487588603420487
7.38100e-06	0.0004857286406742965
7.38125e-06	0.00048386867792809965
7.38150e-06	0.0004820087151819091
7.38175e-06	0.00048014875243571856
7.38200e-06	0.0004782887896895217
7.38225e-06	0.0004768593131564859
7.38250e-06	0.0004755710029974881
7.38275e-06	0.00047428269283848593
7.38300e-06	0.0004748390762462272
7.38325e-06	0.00047600037728911577
7.38350e-06	0.000479717111938621
7.38375e-06	0.0004842718323012694
7.38400e-06	0.0004911577335311032
7.38425e-06	0.0004988080828202821
7.38450e-06	0.0005086211823371894
7.38475e-06	0.0005191434976158744
7.38500e-06	0.0005324419925519759
7.38525e-06	0.0005466508609307492
7.38550e-06	0.0005638518552377487
7.38575e-06	0.0005820340367581362
7.38600e-06	0.0006027803747732073
7.38625e-06	0.0006243675589379535
7.38650e-06	0.0006486860006173173
7.38675e-06	0.0006739000847309548
7.38700e-06	0.0006991141688446779
7.38725e-06	0.0007276430672987636
7.38750e-06	0.0007572589699512072
7.38775e-06	0.0007868748726035502
7.38800e-06	0.0008194353629718833
7.38825e-06	0.000852961451675749
7.38850e-06	0.0008864875403795011
7.38875e-06	0.0009200136290832531
7.38900e-06	0.0009535397177871188
7.38925e-06	0.0009874383948794132
7.38950e-06	0.001022436841074387
7.38975e-06	0.0010574352872694795
7.39000e-06	0.001092433733464453
7.39025e-06	0.001127432179659427
7.39050e-06	0.0011624306258545194
7.39075e-06	0.0011943249632069223
7.39100e-06	0.0012252013915614538
7.39125e-06	0.0012560778199160899
7.39150e-06	0.0012869542482706214
7.39175e-06	0.0013178306766252574
7.39200e-06	0.001348707104979789
7.39225e-06	0.0013713302785836469
7.39250e-06	0.0013912470192954927
7.39275e-06	0.001411163760007271
7.39300e-06	0.0014310805007190495
7.39325e-06	0.0014509972414308956
7.39350e-06	0.001470913982142674
7.39375e-06	0.0014823018862090444
7.39400e-06	0.0014908929877139358
7.39425e-06	0.001499484089218798
7.39450e-06	0.0015020041191003688
7.39475e-06	0.0015025333043482884
7.39500e-06	0.0015030624895962066
7.39525e-06	0.001497652279379795
7.39550e-06	0.0014902944041841277
7.39575e-06	0.0014829365289884854
7.39600e-06	0.0014701233859196461
7.39625e-06	0.0014555213344926792
7.39650e-06	0.001440919283065712
7.39675e-06	0.0014214315084478642
7.39700e-06	0.001400341592330375
7.39725e-06	0.0013792516762128856
7.39750e-06	0.0013526388277422666
7.39775e-06	0.0013242148821675558
