Time(s)	Current(A)
2.25000e-06	-0.004292595821215762
2.25025e-06	-0.00434346978251542
2.25050e-06	-0.004390825086845541
2.25075e-06	-0.004436873167394107
2.25100e-06	-0.004478299137974627
2.25125e-06	-0.004518007938588507
2.25150e-06	-0.004552134625125429
2.25175e-06	-0.004584187488514683
2.25200e-06	-0.004610218893771605
2.25225e-06	-0.0046340132542304555
2.25250e-06	-0.004649975475067264
2.25275e-06	-0.004663027960950507
2.25300e-06	-0.00467608044683375
2.25325e-06	-0.004679389272977397
2.25350e-06	-0.004679078211237475
2.25375e-06	-0.004678767149497553
2.25400e-06	-0.004666759863221413
2.25425e-06	-0.004650407287535167
2.25450e-06	-0.004634054711848921
2.25475e-06	-0.004617702136162675
2.25500e-06	-0.004597472157955123
2.25525e-06	-0.004564196726726108
2.25550e-06	-0.004530921295497093
2.25575e-06	-0.004497645864268134
2.25600e-06	-0.00446437043303912
2.25625e-06	-0.004422860450798837
2.25650e-06	-0.004378291232888468
2.25675e-06	-0.004333722014978174
2.25700e-06	-0.004285066003272362
2.25725e-06	-0.004234891698056884
2.25750e-06	-0.004182813512013929
2.25775e-06	-0.004129034903431144
2.25800e-06	-0.00407412477237869
2.25825e-06	-0.004018403037634737
2.25850e-06	-0.003962190326439339
2.25875e-06	-0.003905807013758259
2.25900e-06	-0.0038495739838431634
2.25925e-06	-0.003793812310151745
2.25950e-06	-0.003738849856621404
2.25975e-06	-0.003685031439705561
2.26000e-06	-0.0036327182712223467
2.26025e-06	-0.003582277529833471
2.26050e-06	-0.0035340772577179985
2.26075e-06	-0.0034884853903615455
2.26100e-06	-0.003445869969943156
2.26125e-06	-0.003406539515248376
2.26150e-06	-0.003370343949867539
2.26175e-06	-0.0033365581867240935
2.26200e-06	-0.003304616287641015
2.26225e-06	-0.003274477550234296
2.26250e-06	-0.003246315400443569
2.26275e-06	-0.003220326347331981
2.26300e-06	-0.0031976425432246143
2.26325e-06	-0.003175962634256106
2.26350e-06	-0.0031575626120043817
2.26375e-06	-0.003140381107486588
2.26400e-06	-0.003125982794367852
2.26425e-06	-0.0031126184706425715
2.26450e-06	-0.003099254146917269
2.26475e-06	-0.003090621044855951
2.26500e-06	-0.0030837456490811076
2.26525e-06	-0.0030768702533062755
2.26550e-06	-0.003069994857531432
2.26575e-06	-0.0030631194617565883
2.26600e-06	-0.0030606931205671675
2.26625e-06	-0.003059919657168949
2.26650e-06	-0.0030591461937707304
2.26675e-06	-0.003058372730372513
2.26700e-06	-0.0030575992669742945
2.26725e-06	-0.0030596121072784576
2.26750e-06	-0.003062660093234532
2.26775e-06	-0.003065708079190602
2.26800e-06	-0.003069863762195236
2.26825e-06	-0.0030744309681011504
2.26850e-06	-0.003078998174007057
2.26875e-06	-0.0030843251214493156
2.26900e-06	-0.0030899343220957957
2.26925e-06	-0.0030955435227422758
2.26950e-06	-0.0031014841271059805
2.26975e-06	-0.00310754785197398
2.27000e-06	-0.0031132654038307644
2.27025e-06	-0.003118854348211237
2.27050e-06	-0.0031244432925917193
2.27075e-06	-0.0031295782367974606
2.27100e-06	-0.0031342606723629607
2.27125e-06	-0.0031385729981982546
2.27150e-06	-0.0031429233189035678
2.27175e-06	-0.0031481786958747955
2.27200e-06	-0.0031549698792030442
2.27225e-06	-0.0031639379788201438
2.27250e-06	-0.0031735466666530953
2.27275e-06	-0.0031851362223804295
2.27300e-06	-0.003197461694578856
2.27325e-06	-0.003212203417613777
2.27350e-06	-0.0032278428071684366
2.27375e-06	-0.00324348219672307
2.27400e-06	-0.0032644998388275887
2.27425e-06	-0.003287515567047932
2.27450e-06	-0.0033105312952682367
2.27475e-06	-0.0033335470234885805
2.27500e-06	-0.003356562751708924
2.27525e-06	-0.0033850468874184105
2.27550e-06	-0.0034155626028982613
2.27575e-06	-0.003446078318378112
2.27600e-06	-0.003476594033857963
2.27625e-06	-0.003507109749337762
2.27650e-06	-0.003541936570801912
2.27675e-06	-0.003578365020477353
2.27700e-06	-0.003614793470152732
2.27725e-06	-0.003651221919828173
2.27750e-06	-0.0036876503695036137
2.27775e-06	-0.0037240788191790545
2.27800e-06	-0.0037615890489043316
2.27825e-06	-0.003799501173051349
2.27850e-06	-0.003837413297198367
2.27875e-06	-0.0038753254213453204
2.27900e-06	-0.003913237545492339
2.27925e-06	-0.003951149669639356
2.27950e-06	-0.003986966364835766
2.27975e-06	-0.00402200458273795
2.28000e-06	-0.0040570428006401335
2.28025e-06	-0.004086289466661458
2.28050e-06	-0.004113384500847741
2.28075e-06	-0.00414047953503407
2.28100e-06	-0.004167574569220399
2.28125e-06	-0.004194669603406682
2.28150e-06	-0.004221764637593012
2.28175e-06	-0.004248859671779341
2.28200e-06	-0.00426760794496768
2.28225e-06	-0.004283255295112891
2.28250e-06	-0.004298902645258129
2.28275e-06	-0.004314549995403367
2.28300e-06	-0.0043301973455485785
2.28325e-06	-0.0043458446956938165
2.28350e-06	-0.004361492045839054
2.28375e-06	-0.004369428354872738
2.28400e-06	-0.004374499918518937
2.28425e-06	-0.0043795714821651364
2.28450e-06	-0.004384643045811335
2.28475e-06	-0.0043897146094575255
2.28500e-06	-0.004394786173103724
2.28525e-06	-0.004399857736749923
2.28550e-06	-0.004404929300396114
2.28575e-06	-0.004410000864042313
2.28600e-06	-0.004415072427688512
2.28625e-06	-0.004414415949843204
2.28650e-06	-0.0044116314350434935
2.28675e-06	-0.004408846920243779
2.28700e-06	-0.004406062405444064
2.28725e-06	-0.004403277890644355
2.28750e-06	-0.00440049337584464
2.28775e-06	-0.004397708861044926
2.28800e-06	-0.004394924346245215
2.28825e-06	-0.004392139831445501
2.28850e-06	-0.004389355316645787
2.28875e-06	-0.004384804043444586
2.28900e-06	-0.004379596398048202
2.28925e-06	-0.00437438875265181
2.28950e-06	-0.004369181107255418
2.28975e-06	-0.004364011089049211
2.29000e-06	-0.00435896766686681
2.29025e-06	-0.00435392424468441
2.29050e-06	-0.00434888082250201
2.29075e-06	-0.004343837400319619
2.29100e-06	-0.00433934570463647
2.29125e-06	-0.004335058982045945
2.29150e-06	-0.004330772259455426
2.29175e-06	-0.004325038259229531
2.29200e-06	-0.004318766577791641
2.29225e-06	-0.004312494896353762
2.29250e-06	-0.0043039584766642845
2.29275e-06	-0.0042945806792196225
2.29300e-06	-0.004285202881774961
2.29325e-06	-0.0042727955343173744
2.29350e-06	-0.004259262672250152
2.29375e-06	-0.00424572981018293
2.29400e-06	-0.00423219694811573
2.29425e-06	-0.004218664086048507
2.29450e-06	-0.004200786403264011
2.29475e-06	-0.004181294566835369
2.29500e-06	-0.00416180273040676
2.29525e-06	-0.004142310893978118
2.29550e-06	-0.004122819057549475
2.29575e-06	-0.004101137766657463
2.29600e-06	-0.00407655255585471
2.29625e-06	-0.0040511906948370886
2.29650e-06	-0.00402582883381951
2.29675e-06	-0.00400046697280189
2.29700e-06	-0.003975105111784268
2.29725e-06	-0.003949195836255811
2.29750e-06	-0.003921444794171602
2.29775e-06	-0.003893693752087346
2.29800e-06	-0.00386594271000309
2.29825e-06	-0.0038381916679188807
2.29850e-06	-0.0038104406258346246
2.29875e-06	-0.003782722995998501
2.29900e-06	-0.0037550177792181963
2.29925e-06	-0.0037280308254589484
2.29950e-06	-0.003701310715131943
2.29975e-06	-0.003675576412737579
2.30000e-06	-0.0036502083499583148
2.30025e-06	-0.00362620772008712
2.30050e-06	-0.0036027151081424445
2.30075e-06	-0.0035850163034877977
2.30100e-06	-0.003569469968580385
2.30125e-06	-0.0035539236336729727
2.30150e-06	-0.00353837729876556
2.30175e-06	-0.003522830963858174
2.30200e-06	-0.0035072846289507615
2.30225e-06	-0.003491738294043349
2.30250e-06	-0.003476191959135963
2.30275e-06	-0.0034606456242285504
2.30300e-06	-0.003445099289321138
2.30325e-06	-0.0034295529544137253
2.30350e-06	-0.0034140066195063393
2.30375e-06	-0.0034048144196627632
2.30400e-06	-0.0033979828581371004
2.30425e-06	-0.003391151296611449
2.30450e-06	-0.0033843197350857863
2.30475e-06	-0.003377488173560124
2.30500e-06	-0.0033706566120344727
2.30525e-06	-0.0033638250505088098
2.30550e-06	-0.0033569934889831473
2.30575e-06	-0.0033501619274574844
2.30600e-06	-0.0033433303659318333
2.30625e-06	-0.0033364988044061704
2.30650e-06	-0.003329667242880508
2.30675e-06	-0.0033257410872466254
2.30700e-06	-0.0033228943251743305
2.30725e-06	-0.0033200475631020355
2.30750e-06	-0.0033172008010297406
2.30775e-06	-0.0033143540389574504
2.30800e-06	-0.0033115072768851554
2.30825e-06	-0.0033086605148128605
2.30850e-06	-0.0033058137527405703
2.30875e-06	-0.0033040320774547806
2.30900e-06	-0.00330264609484077
2.30925e-06	-0.0033012601122267616
2.30950e-06	-0.003299874129612751
2.30975e-06	-0.0032984881469987405
2.31000e-06	-0.00329710216438473
2.31025e-06	-0.003295716181770722
2.31050e-06	-0.0032943301991567113
2.31075e-06	-0.0032931344773039326
2.31100e-06	-0.003292033206313764
2.31125e-06	-0.0032910327759376103
2.31150e-06	-0.003290688197209571
2.31175e-06	-0.003292100736233322
2.31200e-06	-0.003296064610380875
2.31225e-06	-0.003302712524520156
2.31250e-06	-0.0033127857267368018
2.31275e-06	-0.003323862761023947
2.31300e-06	-0.003338199734992521
2.31325e-06	-0.003353747816129761
2.31350e-06	-0.0033741319356478307
2.31375e-06	-0.003396312702135946
2.31400e-06	-0.003418493468624061
2.31425e-06	-0.0034491028391780395
2.31450e-06	-0.0034828435384692117
2.31475e-06	-0.003516584237760441
2.31500e-06	-0.0035503249370516703
2.31525e-06	-0.003584065636342842
2.31550e-06	-0.003626339422552015
2.31575e-06	-0.0036717833541465065
2.31600e-06	-0.00371722728574092
2.31625e-06	-0.0037626712173354114
2.31650e-06	-0.003808115148929902
2.31675e-06	-0.0038586446633861295
2.31700e-06	-0.0039110635336165565
2.31725e-06	-0.003963482403847072
2.31750e-06	-0.0040176085139218345
2.31775e-06	-0.00407236888432527
2.31800e-06	-0.004128080261451448
2.31825e-06	-0.0041841449491207255
2.31850e-06	-0.004240255133005938
2.31875e-06	-0.004296382219287619
2.31900e-06	-0.004351558977894747
2.31925e-06	-0.004406382678233349
2.31950e-06	-0.004459461055452345
2.31975e-06	-0.004511891023943541
2.32000e-06	-0.00456192582038015
2.32025e-06	-0.004611070781319951
2.32050e-06	-0.004655660235583668
2.32075e-06	-0.004698557263811316
2.32100e-06	-0.0047414542920389624
2.32125e-06	-0.004778292967193862
2.32150e-06	-0.004812880890631219
2.32175e-06	-0.004847468814068576
2.32200e-06	-0.004879577759610756
2.32225e-06	-0.00491076573476905
2.32250e-06	-0.004941953709927344
2.32275e-06	-0.004969650133449306
2.32300e-06	-0.0049960494031493176
2.32325e-06	-0.005022448672849372
2.32350e-06	-0.005048847942549428
2.32375e-06	-0.005074491277968359
2.32400e-06	-0.005097591285707686
2.32425e-06	-0.005120691293447013
2.32450e-06	-0.0051437913011863024
2.32475e-06	-0.00516689130892563
2.32500e-06	-0.005187648723674219
2.32525e-06	-0.0052075358366865925
2.32550e-06	-0.005227422949698932
2.32575e-06	-0.005247310062711306
2.32600e-06	-0.005267197175723679
2.32625e-06	-0.0052870842887360195
2.32650e-06	-0.005306971401748393
2.32675e-06	-0.005326858514760766
2.32700e-06	-0.005344613586818216
2.32725e-06	-0.005361576579776912
2.32750e-06	-0.005378539572735637
2.32775e-06	-0.005395502565694361
2.32800e-06	-0.005412465558653057
2.32825e-06	-0.0054294285516117815
2.32850e-06	-0.005446391544570506
2.32875e-06	-0.005463354537529202
2.32900e-06	-0.005476897861741084
2.32925e-06	-0.00548917073749711
2.32950e-06	-0.005501443613253136
2.32975e-06	-0.00551371648900914
2.33000e-06	-0.005525989364765165
2.33025e-06	-0.00553826224052119
2.33050e-06	-0.005550535116277195
2.33075e-06	-0.005562807992033221
2.33100e-06	-0.0055750808677892455
2.33125e-06	-0.005587353743545271
2.33150e-06	-0.005594837904907453
2.33175e-06	-0.005600543000735032
2.33200e-06	-0.0056062480965626115
2.33225e-06	-0.005611953192390181
2.33250e-06	-0.0056176582882177615
2.33275e-06	-0.005623363384045341
2.33300e-06	-0.005629068479872911
2.33325e-06	-0.00563477357570049
2.33350e-06	-0.005640478671528069
2.33375e-06	-0.005646183767355649
2.33400e-06	-0.005647544086119465
2.33425e-06	-0.005647290267456362
2.33450e-06	-0.005647036448793259
2.33475e-06	-0.005646782630130156
2.33500e-06	-0.005646528811467053
2.33525e-06	-0.005646274992803949
2.33550e-06	-0.005646021174140846
2.33575e-06	-0.005645767355477743
2.33600e-06	-0.00564551353681464
2.33625e-06	-0.005645259718151536
2.33650e-06	-0.005645005899488433
2.33675e-06	-0.00564475208082533
2.33700e-06	-0.005644498262162227
2.33725e-06	-0.005644244443499124
2.33750e-06	-0.005641836393562613
2.33775e-06	-0.005638628020554583
2.33800e-06	-0.005635419647546553
2.33825e-06	-0.005632211274538528
2.33850e-06	-0.005629002901530498
2.33875e-06	-0.005625794528522467
2.33900e-06	-0.005622586155514443
2.33925e-06	-0.005619377782506412
2.33950e-06	-0.005616169409498382
2.33975e-06	-0.005612961036490352
2.34000e-06	-0.005609752663482327
2.34025e-06	-0.005606544290474297
2.34050e-06	-0.005603335917466267
2.34075e-06	-0.005600127544458242
2.34100e-06	-0.005597067858710279
2.34125e-06	-0.005594063412084569
2.34150e-06	-0.005591058965458864
2.34175e-06	-0.005584146649833393
2.34200e-06	-0.005575782513430971
2.34225e-06	-0.005567418377028548
2.34250e-06	-0.00555905424062614
2.34275e-06	-0.005550690104223717
2.34300e-06	-0.005542325967821295
2.34325e-06	-0.005531712078903231
2.34350e-06	-0.005513528936956436
2.34375e-06	-0.005495345795009641
2.34400e-06	-0.005477162653062847
2.34425e-06	-0.005458979511116082
2.34450e-06	-0.0054407963691692875
2.34475e-06	-0.005422613227222492
2.34500e-06	-0.0053974311375501365
2.34525e-06	-0.005369648853826779
2.34550e-06	-0.00534186657010342
2.34575e-06	-0.005314084286380109
2.34600e-06	-0.005286302002656751
2.34625e-06	-0.005258519718933393
2.34650e-06	-0.005229299077458404
2.34675e-06	-0.005195239106460619
2.34700e-06	-0.0051611791354627765
2.34725e-06	-0.005127119164464934
2.34750e-06	-0.005093059193467149
2.34775e-06	-0.005058999222469307
2.34800e-06	-0.005024939251471464
2.34825e-06	-0.004989776132176292
2.34850e-06	-0.004954203179895911
2.34875e-06	-0.004918630227615468
2.34900e-06	-0.004883946715039029
2.34925e-06	-0.004849593640110963
2.34950e-06	-0.004815240565182837
2.34975e-06	-0.004782778525757212
2.35000e-06	-0.004751019028979016
2.35025e-06	-0.004719259532200766
2.35050e-06	-0.004691853547953581
2.35075e-06	-0.004666064946465706
2.35100e-06	-0.004640276344977875
2.35125e-06	-0.00461448774349
2.35150e-06	-0.004588699142002124
2.35175e-06	-0.004565803081275538
2.35200e-06	-0.004543981634558753
2.35225e-06	-0.004522160187841967
2.35250e-06	-0.004500338741125182
2.35275e-06	-0.004478517294408433
2.35300e-06	-0.004457356241272023
2.35325e-06	-0.004436440532368267
2.35350e-06	-0.004415524823464547
2.35375e-06	-0.004394609114560792
2.35400e-06	-0.004373693405657036
2.35425e-06	-0.004352777696753317
2.35450e-06	-0.004331861987849561
2.35475e-06	-0.004310061479403144
2.35500e-06	-0.0042879322571846646
2.35525e-06	-0.004265803034966223
2.35550e-06	-0.004243673812747743
2.35575e-06	-0.004221544590529264
2.35600e-06	-0.004199415368310822
2.35625e-06	-0.004177286146092343
2.35650e-06	-0.004154518133720547
2.35675e-06	-0.004131512803051518
2.35700e-06	-0.004108507472382529
2.35725e-06	-0.004085502141713501
2.35750e-06	-0.004062496811044472
2.35775e-06	-0.0040394914803754825
2.35800e-06	-0.004016486149706454
2.35825e-06	-0.0039946342790705275
2.35850e-06	-0.003973210932840601
2.35875e-06	-0.003951787586610639
2.35900e-06	-0.003930364240380678
2.35925e-06	-0.003908940894150716
2.35950e-06	-0.00388751754792079
2.35975e-06	-0.003866094201690828
2.36000e-06	-0.003846518726953902
2.36025e-06	-0.003827629758910905
2.36050e-06	-0.0038099741966769896
2.36075e-06	-0.0037927768596754275
2.36100e-06	-0.0037767461271360817
2.36125e-06	-0.003762735228205306
2.36150e-06	-0.0037493137057518786
2.36175e-06	-0.0037393858852530957
2.36200e-06	-0.0037307560174460724
2.36225e-06	-0.0037262463582537282
2.36250e-06	-0.003723267406583496
2.36275e-06	-0.0037252402709773563
2.36300e-06	-0.003729052795156976
2.36325e-06	-0.0037328653193365955
2.36350e-06	-0.0037429743160865914
2.36375e-06	-0.003755422528839317
2.36400e-06	-0.0037678707415920634
2.36425e-06	-0.0037893439446610687
2.36450e-06	-0.003814170041201178
2.36475e-06	-0.0038389961377413295
2.36500e-06	-0.0038638222342814808
2.36525e-06	-0.003888648330821632
2.36550e-06	-0.003916451016798943
2.36575e-06	-0.003954268385929462
2.36600e-06	-0.003992085755059981
2.36625e-06	-0.004029903124190436
2.36650e-06	-0.004067720493320955
2.36675e-06	-0.004105537862451473
2.36700e-06	-0.004147964377905206
2.36725e-06	-0.004192103247175888
2.36750e-06	-0.004237736870854271
2.36775e-06	-0.004283925813942326
2.36800e-06	-0.00433113485688673
2.36825e-06	-0.004378722879312501
2.36850e-06	-0.004426538043293922
2.36875e-06	-0.004474437593120821
2.36900e-06	-0.0045217241323667464
2.36925e-06	-0.004568782930739492
2.36950e-06	-0.00461448533073433
2.36975e-06	-0.004659683812264204
2.37000e-06	-0.004702830380503327
2.37025e-06	-0.004745214638043433
2.37050e-06	-0.0047837229461928
2.37075e-06	-0.004820791292087216
2.37100e-06	-0.004857859637981633
2.37125e-06	-0.0048901606708120415
2.37150e-06	-0.004920690588961155
2.37175e-06	-0.004949523283224233
2.37200e-06	-0.00497772543820831
2.37225e-06	-0.005005927593192339
2.37250e-06	-0.005032043078945522
2.37275e-06	-0.0050573833417459765
2.37300e-06	-0.005082723604546389
2.37325e-06	-0.005108063867346844
2.37350e-06	-0.0051334041301472995
2.37375e-06	-0.005157252184970074
2.37400e-06	-0.005180545866412772
2.37425e-06	-0.005203839547855509
2.37450e-06	-0.005227133229298247
2.37475e-06	-0.005250426910740945
2.37500e-06	-0.005272977396783773
2.37525e-06	-0.005295251776712678
2.37550e-06	-0.005317526156641544
2.37575e-06	-0.005339800536570448
2.37600e-06	-0.005362074916499353
2.37625e-06	-0.005384349296428257
2.37650e-06	-0.005406623676357123
2.37675e-06	-0.005428643656648424
2.37700e-06	-0.005449807713803876
2.37725e-06	-0.005470971770959294
2.37750e-06	-0.005492135828114746
2.37775e-06	-0.0055132998852701984
2.37800e-06	-0.005534463942425651
2.37825e-06	-0.005555627999581068
2.37850e-06	-0.0055767920567365206
2.37875e-06	-0.005595806167834501
2.37900e-06	-0.005614021547870381
2.37925e-06	-0.005632236927906293
2.37950e-06	-0.005650452307942204
2.37975e-06	-0.005668667687978085
2.38000e-06	-0.0056868830680139966
2.38025e-06	-0.005703896342217161
2.38050e-06	-0.005716865152349079
2.38075e-06	-0.005729833962480976
2.38100e-06	-0.005742802772612894
2.38125e-06	-0.005755771582744812
2.38150e-06	-0.005768740392876709
2.38175e-06	-0.005781709203008627
2.38200e-06	-0.005790793035517574
2.38225e-06	-0.005798433551673429
2.38250e-06	-0.00580607406782927
2.38275e-06	-0.005813714583985124
2.38300e-06	-0.005821355100140979
2.38325e-06	-0.00582899561629682
2.38350e-06	-0.005836636132452675
2.38375e-06	-0.0058442766486085295
2.38400e-06	-0.00585191716476437
2.38425e-06	-0.0058570941594233514
2.38450e-06	-0.005860449278024247
2.38475e-06	-0.0058638043966251436
2.38500e-06	-0.005867159515226034
2.38525e-06	-0.00587051463382693
2.38550e-06	-0.005873869752427826
2.38575e-06	-0.0058772248710287165
2.38600e-06	-0.005880579989629612
2.38625e-06	-0.005883935108230508
2.38650e-06	-0.0058860476913146645
2.38675e-06	-0.0058885898561260005
2.38700e-06	-0.0382519629661582
2.38725e-06	-0.030074436826927148
2.38750e-06	-0.0231789260175469
2.38775e-06	-0.017713681102462166
2.38800e-06	0.0024237233883229545
2.38825e-06	0.004052730151088339
2.38850e-06	0.0013339186995980994
2.38875e-06	-0.0039410832944820045
2.38900e-06	-0.012016577095511901
2.38925e-06	-0.015990928990193026
2.38950e-06	-0.014005291015781705
2.38975e-06	-0.008917388173661204
2.39000e-06	-0.0027138268810406752
2.39025e-06	0.0006219057448693237
2.39050e-06	-0.00010254894256980546
2.39075e-06	-0.0037275986387758555
2.39100e-06	-0.00890367600796579
2.39125e-06	-0.011479676831927802
2.39150e-06	-0.010299708410673337
2.39175e-06	-0.007159363514365191
2.39200e-06	-0.0033068793500154424
2.39225e-06	-0.0012404956618554466
2.39250e-06	-0.0017093022596057984
2.39275e-06	-0.003988498956093063
2.39300e-06	-0.007233894191664934
2.39325e-06	-0.00884624413844182
2.39350e-06	-0.008102414735285708
2.39375e-06	-0.006127890536766343
2.39400e-06	-0.003705086095434057
2.39425e-06	-0.0023992217410269655
2.39450e-06	-0.0026796967879144534
2.39475e-06	-0.0040926234306001355
2.39500e-06	-0.006109339764186303
2.39525e-06	-0.007101896794951261
2.39550e-06	-0.006617618515288091
2.39575e-06	-0.00536177717915517
2.39600e-06	-0.003824683297310427
