Time(s)	Current(A)
1.45000e-05	-0.002484583343669213
1.45003e-05	-0.002479068233515747
1.45005e-05	-0.002472429766203888
1.45008e-05	-0.0024640072084817126
1.45010e-05	-0.002453729598209613
1.45013e-05	-0.002443451987937444
1.45015e-05	-0.0024313336712061344
1.45018e-05	-0.002417301433974498
1.45020e-05	-0.0024032691967427666
1.45023e-05	-0.0023858704733645216
1.45025e-05	-0.002364971361959648
1.45028e-05	-0.002344072250554633
1.45030e-05	-0.002323173139149618
1.45033e-05	-0.002302274027744745
1.45035e-05	-0.0022777981974538633
1.45038e-05	-0.002249603384396083
1.45040e-05	-0.0022214085713384937
1.45043e-05	-0.0021932137582807132
1.45045e-05	-0.0021650189452229332
1.45048e-05	-0.0021344024796019012
1.45050e-05	-0.0021012680402626607
1.45053e-05	-0.00206813360092342
1.45055e-05	-0.002034136261468993
1.45058e-05	-0.001999241700073944
1.45060e-05	-0.0019638830811253157
1.45063e-05	-0.0019280419467487347
1.45065e-05	-0.0018918977852435508
1.45068e-05	-0.0018554385437154867
1.45070e-05	-0.0018190048992621716
1.45073e-05	-0.0017827575592243555
1.45075e-05	-0.0017469429033654088
1.45078e-05	-0.0017117620292823367
1.45080e-05	-0.0016773589109919211
1.45083e-05	-0.0016438328092606474
1.45085e-05	-0.00161132141612868
1.45088e-05	-0.0015800303693448686
1.45090e-05	-0.0015506314568208858
1.45093e-05	-0.0015224908467369482
1.45095e-05	-0.0014962976689299357
1.45098e-05	-0.0014721293824573767
1.45100e-05	-0.0014498901508747312
1.45103e-05	-0.0014296567022800597
1.45105e-05	-0.0014094232536852511
1.45108e-05	-0.0013910400236542574
1.45110e-05	-0.0013745806045727606
1.45113e-05	-0.001358121185491152
1.45115e-05	-0.001343893211116705
1.45118e-05	-0.001331985437093074
1.45120e-05	-0.0013200776630693622
1.45123e-05	-0.0013102207686346576
1.45125e-05	-0.0013024963274607061
1.45128e-05	-0.0012947718862867023
1.45130e-05	-0.0012870474451126986
1.45133e-05	-0.001279323003938747
1.45135e-05	-0.0012761981182779925
1.45138e-05	-0.0012731185190945212
1.45140e-05	-0.0012700389199110707
1.45143e-05	-0.0012669593207275994
1.45145e-05	-0.0012658975397739183
1.45148e-05	-0.0012669338357072962
1.45150e-05	-0.001267970131640681
1.45153e-05	-0.0012690064275740658
1.45155e-05	-0.0012700427235074437
1.45158e-05	-0.0012710790194408285
1.45160e-05	-0.0012721153153742134
1.45163e-05	-0.001274560587780999
1.45165e-05	-0.001278470878656608
1.45168e-05	-0.001282381169532217
1.45170e-05	-0.0012862914604077995
1.45173e-05	-0.0012902017512834085
1.45175e-05	-0.0012941120421590174
1.45178e-05	-0.0012980223330346264
1.45180e-05	-0.001302176430031794
1.45183e-05	-0.0013065840305314835
1.45185e-05	-0.0013109916310311731
1.45188e-05	-0.001315123703898017
1.45190e-05	-0.0013189692900290335
1.45193e-05	-0.00132281487616005
1.45195e-05	-0.001326353763490213
1.45198e-05	-0.0013295737530842852
1.45200e-05	-0.001333086839169065
1.45203e-05	-0.0013369046796483533
1.45205e-05	-0.0013415774110505086
1.45208e-05	-0.0013471390366354685
1.45210e-05	-0.0013536130633299193
1.45213e-05	-0.001361035781859819
1.45215e-05	-0.0013684585003897192
1.45218e-05	-0.0013769715154163882
1.45220e-05	-0.0013866181934493627
1.45223e-05	-0.001396264871482337
1.45225e-05	-0.0014074788210040744
1.45228e-05	-0.001420322380189738
1.45230e-05	-0.001433165939375402
1.45233e-05	-0.0014472463004986395
1.45235e-05	-0.0014626126573185076
1.45238e-05	-0.0014779790141383757
1.45240e-05	-0.0014944897913322381
1.45243e-05	-0.00151219050818538
1.45245e-05	-0.0015298912250385215
1.45248e-05	-0.001548504276416274
1.45250e-05	-0.0015680659503964803
1.45253e-05	-0.00158808774391867
1.45255e-05	-0.0016085879582233061
1.45258e-05	-0.00162936474649241
1.45260e-05	-0.0016504291094467584
1.45263e-05	-0.0016717351464522732
1.45265e-05	-0.0016932924700867515
1.45268e-05	-0.0017149026715129459
1.45270e-05	-0.001736567853943243
1.45273e-05	-0.0017581090460850135
1.45275e-05	-0.0017793513539369062
1.45278e-05	-0.0018001928150346575
1.45280e-05	-0.001820410746447406
1.45283e-05	-0.0018402226551618793
1.45285e-05	-0.0018595660546578045
1.45288e-05	-0.0018780236006030531
1.45290e-05	-0.001895599153663792
1.45293e-05	-0.001912152435647154
1.45295e-05	-0.0019272013843762486
1.45298e-05	-0.001941265926859787
1.45300e-05	-0.001953791591488048
1.45303e-05	-0.001964717169441432
1.45305e-05	-0.001973471133828688
1.45308e-05	-0.0019799671087866455
1.45310e-05	-0.001986463083744559
1.45313e-05	-0.0019902886303513165
1.45315e-05	-0.0019913375324009798
1.45318e-05	-0.0019923864344506357
1.45320e-05	-0.001989566237646234
1.45323e-05	-0.0019827230486993285
1.45325e-05	-0.001975879859752469
1.45328e-05	-0.0019690366708055634
1.45330e-05	-0.0019621934818586577
1.45333e-05	-0.0019553502929117983
1.45335e-05	-0.0019395907184349157
1.45338e-05	-0.0019237433546716613
1.45340e-05	-0.0019078959909085143
1.45343e-05	-0.00189204862714526
1.45345e-05	-0.0018762012633820055
1.45348e-05	-0.0018576800745813901
1.45350e-05	-0.0018363787094345001
1.45353e-05	-0.0018150773442874657
1.45355e-05	-0.0017925117633164165
1.45358e-05	-0.0017686316823757556
1.45360e-05	-0.0017447516014349328
1.45363e-05	-0.0017201901208541233
1.45365e-05	-0.0016949201379836264
1.45368e-05	-0.0016694181548725863
1.45370e-05	-0.0016436749437186917
1.45373e-05	-0.001617939123470538
1.45375e-05	-0.001592312691527225
1.45378e-05	-0.0015669647671115797
1.45380e-05	-0.0015420383468300286
1.45383e-05	-0.001517677662776867
1.45385e-05	-0.0014940371212232954
1.45388e-05	-0.0014712811009249607
1.45390e-05	-0.0014498970133499404
1.45393e-05	-0.001429425379006674
1.45395e-05	-0.0014103709436717818
1.45398e-05	-0.0013927900763924608
1.45400e-05	-0.001376729861775092
1.45403e-05	-0.0013622507837331794
1.45405e-05	-0.0013477717056911691
1.45408e-05	-0.0013348630761806373
1.45410e-05	-0.0013235873597443077
1.45413e-05	-0.0013123116433079016
1.45415e-05	-0.0013037156785485914
1.45418e-05	-0.0012979060525080684
1.45420e-05	-0.0012920964264675058
1.45423e-05	-0.0012862868004269432
1.45425e-05	-0.0012804771743864202
1.45428e-05	-0.0012746675483458576
1.45430e-05	-0.001268857922305295
1.45433e-05	-0.0012689435884511106
1.45435e-05	-0.001269087298688393
1.45438e-05	-0.0012692310089256762
1.45440e-05	-0.0012693747191629594
1.45443e-05	-0.0012695184294002418
1.45445e-05	-0.001269662139637525
1.45448e-05	-0.001271878693296625
1.45450e-05	-0.0012762505376617238
1.45453e-05	-0.0012806223820268521
1.45455e-05	-0.0012849942263919807
1.45458e-05	-0.0012893660707570794
1.45460e-05	-0.001293737915122208
1.45463e-05	-0.0012981097594873363
1.45465e-05	-0.001303442005761097
1.45468e-05	-0.0013097728539004086
1.45470e-05	-0.0013161037020397203
1.45473e-05	-0.001322434550178989
1.45475e-05	-0.0013287653983183004
1.45478e-05	-0.0013350962464576122
1.45480e-05	-0.0013414270945968807
1.45483e-05	-0.0013476012620607907
1.45485e-05	-0.001353612516880167
1.45488e-05	-0.0013596237716995024
1.45490e-05	-0.0013656350265188785
1.45493e-05	-0.0013705056981414573
1.45495e-05	-0.0013753651397666448
1.45498e-05	-0.0013802245813918652
1.45500e-05	-0.0013849549654945347
1.45503e-05	-0.0013895511588155529
1.45505e-05	-0.001394147352136602
1.45508e-05	-0.0013992288859134472
1.45510e-05	-0.0014048150645480637
1.45513e-05	-0.001410401243182718
1.45515e-05	-0.0014159874218173725
1.45518e-05	-0.0014215736004520268
1.45520e-05	-0.0014271597790866434
1.45523e-05	-0.0014343681400527477
1.45525e-05	-0.0014415924727633064
1.45528e-05	-0.0014488168054738162
1.45530e-05	-0.001456041138184375
1.45533e-05	-0.0014632654708949336
1.45535e-05	-0.0014714482730495634
1.45538e-05	-0.001480627667741746
1.45540e-05	-0.0014898070624339284
1.45543e-05	-0.0014989864571260487
1.45545e-05	-0.0015081658518182313
1.45548e-05	-0.0015173452465104139
1.45550e-05	-0.0015265246412025342
1.45553e-05	-0.0015357040358947168
1.45555e-05	-0.0015460841593539975
1.45558e-05	-0.0015564761049941733
1.45560e-05	-0.0015668680506344193
1.45563e-05	-0.0015772599962746653
1.45565e-05	-0.001587651941914841
1.45568e-05	-0.001598043887555087
1.45570e-05	-0.0016084358331953331
1.45573e-05	-0.0016186769853377885
1.45575e-05	-0.0016287613461757249
1.45578e-05	-0.0016388457070136613
1.45580e-05	-0.0016485375603519175
1.45583e-05	-0.001657821294216543
1.45585e-05	-0.0016671050280811681
1.45588e-05	-0.001675806354782443
1.45590e-05	-0.0016839021090929317
1.45593e-05	-0.0016919978634034204
1.45595e-05	-0.0016986180537888105
1.45598e-05	-0.0017037039897380302
1.45600e-05	-0.00170878992568725
1.45603e-05	-0.0017138758616364698
1.45605e-05	-0.0017189617975856553
1.45608e-05	-0.001724047733534875
1.45610e-05	-0.0017291336694840948
1.45613e-05	-0.0017319865409521312
1.45615e-05	-0.001732517527865745
1.45618e-05	-0.001733048514779359
1.45620e-05	-0.0017335795016929694
1.45623e-05	-0.0017341104886065832
1.45625e-05	-0.0017346414755201973
1.45628e-05	-0.0017351724624338075
1.45630e-05	-0.0017335644018323885
1.45633e-05	-0.001729732213164659
1.45635e-05	-0.0017259000244969555
1.45638e-05	-0.001722067835829226
1.45640e-05	-0.0017182356471614965
1.45643e-05	-0.001714403458493793
1.45645e-05	-0.0017105712698260635
1.45648e-05	-0.001706739081158334
1.45650e-05	-0.0017014636469614608
1.45653e-05	-0.0016946875621872814
1.45655e-05	-0.0016879114774131017
1.45658e-05	-0.0016811353926389683
1.45660e-05	-0.0016743593078647886
1.45663e-05	-0.0016675832230906092
1.45665e-05	-0.0016608071383164755
1.45668e-05	-0.001654031053542296
1.45670e-05	-0.0016469555728860922
1.45673e-05	-0.0016395687878855796
1.45675e-05	-0.001632182002885017
1.45678e-05	-0.0016247952178844542
1.45680e-05	-0.0016174084328839417
1.45683e-05	-0.001610021647883379
1.45685e-05	-0.001603726210915275
1.45688e-05	-0.0015974415191832795
1.45690e-05	-0.0015911568274512412
1.45693e-05	-0.0015848721357192032
1.45695e-05	-0.001578587443987165
1.45698e-05	-0.001573143881179221
1.45700e-05	-0.001568574903173408
1.45703e-05	-0.0015640059251675947
1.45705e-05	-0.0015594369471618123
1.45708e-05	-0.001554867969155999
1.45710e-05	-0.0015502989911501859
1.45713e-05	-0.0015457300131444037
1.45715e-05	-0.0015411610351385905
1.45718e-05	-0.001536592057132777
1.45720e-05	-0.0015323134773503654
1.45723e-05	-0.0015283368463720791
1.45725e-05	-0.0015243602153937929
1.45728e-05	-0.0015203835844155337
1.45730e-05	-0.0015164069534372474
1.45733e-05	-0.0015124303224589612
1.45735e-05	-0.0015084536914807018
1.45738e-05	-0.0015044770605024155
1.45740e-05	-0.0015005004295241293
1.45743e-05	-0.0014965648623030293
1.45745e-05	-0.0014926719921487975
1.45748e-05	-0.0014888282660345793
1.45750e-05	-0.0014850356386631497
1.45753e-05	-0.001481243011291694
1.45755e-05	-0.0014774503839202386
1.45758e-05	-0.0014736577565488088
1.45760e-05	-0.0014698651291773534
1.45763e-05	-0.0014660725018058977
1.45765e-05	-0.0014622798744344681
1.45768e-05	-0.0014584872470630125
1.45770e-05	-0.001454694619691557
1.45773e-05	-0.0014515477803740617
1.45775e-05	-0.0014484072993812362
1.45778e-05	-0.0014452668183884108
1.45780e-05	-0.0014421263373955854
1.45783e-05	-0.0014389858564027812
1.45785e-05	-0.0014358453754099558
1.45788e-05	-0.0014327048944171303
1.45790e-05	-0.0014295644134243264
1.45793e-05	-0.001426423932431501
1.45795e-05	-0.0014236390629848946
1.45798e-05	-0.0014212239495233969
1.45800e-05	-0.0014188088360618824
1.45803e-05	-0.0014159753231511583
1.45805e-05	-0.0014127067689653529
1.45808e-05	-0.0014094382147795252
1.45810e-05	-0.0014053540641772672
1.45813e-05	-0.0014004218768349052
1.45815e-05	-0.00139548968949251
1.45818e-05	-0.0013905575021501144
1.45820e-05	-0.0013856253148077525
1.45823e-05	-0.0013806931274653572
1.45825e-05	-0.0013744764635162875
1.45828e-05	-0.0013669242329409064
1.45830e-05	-0.0013593720023654739
1.45833e-05	-0.0013518197717900416
1.45835e-05	-0.0013442675412146604
1.45838e-05	-0.001336715310639228
1.45840e-05	-0.0013280434862846953
1.45843e-05	-0.0013182075363410506
1.45845e-05	-0.0013083715863973393
1.45848e-05	-0.001298535636453628
1.45850e-05	-0.0012886996865099833
1.45853e-05	-0.0012788637365662718
1.45855e-05	-0.0012684222269960196
1.45858e-05	-0.0012573510716826922
1.45860e-05	-0.0012462799163692898
1.45863e-05	-0.0012352087610558874
1.45865e-05	-0.001224137605742485
1.45868e-05	-0.0012130664504291576
1.45870e-05	-0.0012019488665314026
1.45873e-05	-0.001190783007353694
1.45875e-05	-0.0011797879665570883
1.45878e-05	-0.0011689705384376077
1.45880e-05	-0.0011584063130402882
1.45883e-05	-0.0011481053614961626
1.45885e-05	-0.0011381380565458439
1.45888e-05	-0.0011285176689730487
1.45890e-05	-0.0011193640499032236
1.45893e-05	-0.00111069576503999
1.45895e-05	-0.0011026297391028314
1.45898e-05	-0.001095189926923227
1.45900e-05	-0.0010884465720451396
1.45903e-05	-0.0010824273760377389
1.45905e-05	-0.0010773213325952161
1.45908e-05	-0.0010731647623344928
1.45910e-05	-0.0010690081920737694
1.45913e-05	-0.001066002624562622
1.45915e-05	-0.0010641938409022855
1.45918e-05	-0.0010623850572419491
1.45920e-05	-0.001061804402870064
1.45923e-05	-0.001062500726593766
1.45925e-05	-0.0010631970503174675
1.45928e-05	-0.0010644144325243701
1.45930e-05	-0.001067128661481516
1.45933e-05	-0.0010698428904386615
1.45935e-05	-0.001072484781087291
1.45938e-05	-0.0010763934495078647
1.45940e-05	-0.02570712065442221
1.45943e-05	-0.029256932130786662
1.45945e-05	-0.021034975912594206
1.45948e-05	-0.015186966023158404
1.45950e-05	0.001295409634064785
1.45953e-05	0.011839254509577533
1.45955e-05	0.00785564663716362
1.45958e-05	0.0035379453629324955
1.45960e-05	-0.006122325377505216
1.45963e-05	-0.01311579349090031
1.45965e-05	-0.01162629206450484
1.45968e-05	-0.006209577453013024
1.45970e-05	0.0011513032869093034
1.45973e-05	0.0064961782392895275
1.45975e-05	0.0062692367192976
1.45978e-05	0.0027296786742304685
1.45980e-05	-0.0034574794718296715
1.45983e-05	-0.007938099758474478
1.45985e-05	-0.007079464053193705
1.45988e-05	-0.0037428564702704807
1.45990e-05	0.0008242846484226036
1.45993e-05	0.004137719946677986
1.45995e-05	0.0039677755365245555
1.45998e-05	0.0017280368718723435
1.46000e-05	-0.0021662040394775472
1.46003e-05	-0.00498868923652928
1.46005e-05	-0.004464942911205996
1.46008e-05	-0.002388000300835735
1.46010e-05	0.00046032460026524833
1.46013e-05	0.002523688304512629
1.46015e-05	0.0024054082903991122
1.46018e-05	0.0009910050333564843
1.46020e-05	-0.0014593498013911197
1.46023e-05	-0.0032379649427073894
1.46025e-05	-0.0029202712846201667
1.46028e-05	-0.00162958469818574
1.46030e-05	0.00014428828972066013
1.46033e-05	0.001426449965794953
1.46035e-05	0.0013421025413213826
1.46038e-05	0.0004460350491181254
1.46040e-05	-0.001098711970027115
1.46043e-05	-0.0022224282048308305
1.46045e-05	-0.002032839186589814
1.46048e-05	-0.0012336703677623044
1.46050e-05	-0.00013177067196801077
1.46053e-05	0.000662192756352701
1.46055e-05	0.0006003085612603558
1.46058e-05	3.01659835080052e-05
1.46060e-05	-0.0009460567269081866
1.46063e-05	-0.001658279788131489
1.46065e-05	-0.0015476251700653372
1.46068e-05	-0.0010549519288841644
1.46070e-05	-0.0003724873879141298
1.46073e-05	0.00011725596506115023
1.46075e-05	7.110927873504318e-05
1.46078e-05	-0.000293150242582997
1.46080e-05	-0.0009114832825455926
1.46083e-05	-0.0013641397807165547
1.46085e-05	-0.001301061500411863
1.46088e-05	-0.000998427461712377
1.46090e-05	-0.0005766558837450602
1.46093e-05	-0.00027534289459052436
1.46095e-05	-0.0003094189770456587
1.46098e-05	-0.00054245782177942
1.46100e-05	-0.0009344196716042062
1.46103e-05	-0.0012225267073244814
1.46105e-05	-0.0011876335253775984
1.46108e-05	-0.00100278403930531
1.46110e-05	-0.0007434099847701838
1.46113e-05	-0.0005595854469872157
1.46115e-05	-0.0005859210074121
1.46118e-05	-0.0007369355203606051
1.46120e-05	-0.000987529223212221
1.46123e-05	-0.0011730881615892497
1.46125e-05	-0.0011563435168809217
1.46128e-05	-0.0010456945704573552
1.46130e-05	-0.0008883891920307489
1.46133e-05	-0.0007784247709947283
1.46135e-05	-0.0008001041623897497
1.46138e-05	-0.0008998635673151193
1.46140e-05	-0.0010619652112705785
1.46143e-05	-0.0011832851832516934
1.46145e-05	-0.001177837113422119
1.46148e-05	-0.0011135216393747998
1.46150e-05	-0.0010199297162327846
1.46153e-05	-0.0009559319984489803
1.46155e-05	-0.0009743215037308093
1.46158e-05	-0.0010415307820955102
1.46160e-05	-0.0011476884949359106
1.46163e-05	-0.0012281882200733969
1.46165e-05	-0.0012291637216219925
1.46168e-05	-0.0011931438416681918
1.46170e-05	-0.0011386576099798994
1.46173e-05	-0.0011025722368210938
1.46175e-05	-0.001117944596931046
1.46178e-05	-0.0011637350342034796
1.46180e-05	-0.0012337482475949135
1.46183e-05	-0.001287504955969883
1.46185e-05	-0.0012912571371330806
1.46188e-05	-0.0012716386232536772
1.46190e-05	-0.0012402481026818962
1.46193e-05	-0.0012201696790190065
1.46195e-05	-0.0012320985197588423
1.46198e-05	-0.0012628037689394029
1.46200e-05	-0.0013082217092868524
1.46203e-05	-0.001342717295297525
1.46205e-05	-0.0013449759676919515
1.46208e-05	-0.0013316738302404944
1.46210e-05	-0.0013101282389892494
1.46213e-05	-0.0012948502348544672
1.46215e-05	-0.001298853034832433
1.46218e-05	-0.0013138982455306754
1.46220e-05	-0.0013374905384048149
1.46223e-05	-0.0013536230575828452
1.46225e-05	-0.0013489965230532265
1.46228e-05	-0.0013341090947453888
1.46230e-05	-0.001313595968540083
1.46233e-05	-0.0012965978737706928
1.46235e-05	-0.0012913164079202959
1.46238e-05	-0.0012926409701403503
1.46240e-05	-0.0012990588306997799
1.46243e-05	-0.0013005941796271697
1.46245e-05	-0.0012889679071508475
1.46248e-05	-0.0012708078085966689
1.46250e-05	-0.0012490685928128085
1.46253e-05	-0.0012295267596248028
1.46255e-05	-0.0012173701390339057
1.46258e-05	-0.001209447806312583
1.46260e-05	-0.0012048624345288121
1.46263e-05	-0.001197415882202674
1.46265e-05	-0.0011819734292257689
1.46268e-05	-0.0011627379096397611
1.46270e-05	-0.0011416111439121878
1.46273e-05	-0.0011222622273424697
1.46275e-05	-0.001107991246583224
1.46278e-05	-0.0010968746941904153
1.46280e-05	-0.001088400914915063
1.46283e-05	-0.0010787380328354163
1.46285e-05	-0.0010647205437224949
1.46288e-05	-0.0010490320160561385
1.46290e-05	-0.0010329144631661706
1.46293e-05	-0.0010187167975269271
1.46295e-05	-0.0010085565387705673
1.46298e-05	-0.0010013560393785758
1.46300e-05	-0.00099717192611009
1.46303e-05	-0.0009941519733725132
1.46305e-05	-0.0009906423794114353
1.46308e-05	-0.0009883164949596828
1.46310e-05	-0.0009878250187041247
1.46313e-05	-0.000990511641475145
1.46315e-05	-0.0009975752397793102
1.46318e-05	-0.0010082131961395204
1.46320e-05	-0.0010224459472865561
1.46323e-05	-0.00103879688669072
1.46325e-05	-0.001055993230506687
1.46328e-05	-0.0010752903285705278
1.46330e-05	-0.0010976750229834918
1.46333e-05	-0.0011224268994643692
1.46335e-05	-0.0011493377370739085
1.46338e-05	-0.0011803202874022904
1.46340e-05	-0.0012140561362235939
1.46343e-05	-0.0012496110355965627
1.46345e-05	-0.001286128648063075
1.46348e-05	-0.0013240582081235383
1.46350e-05	-0.0013634475489168539
1.46353e-05	-0.0014046163352757748
1.46355e-05	-0.0014478274255086594
1.46358e-05	-0.0014925583139228768
1.46360e-05	-0.0015385651351712026
1.46363e-05	-0.0015851352185721013
1.46365e-05	-0.0016316046347194045
1.46368e-05	-0.001678127120474636
1.46370e-05	-0.0017246051918381156
1.46373e-05	-0.0017711116533516524
1.46375e-05	-0.001817683503593157
1.46378e-05	-0.0018638659364973744
1.46380e-05	-0.0019093786759401487
1.46383e-05	-0.0019536476806342753
1.46385e-05	-0.0019961298174313753
1.46388e-05	-0.0020367939760265593
1.46390e-05	-0.0020754515653245223
1.46393e-05	-0.002112020759799297
1.46395e-05	-0.002146397225783993
1.46398e-05	-0.0021781523084539894
1.46400e-05	-0.0022069299048283887
1.46403e-05	-0.0022322180676586593
1.46405e-05	-0.0022536613127718337
1.46408e-05	-0.0022705463281439396
1.46410e-05	-0.0022842524860592337
1.46413e-05	-0.0022948772048849916
1.46415e-05	-0.0023014226563546885
1.46418e-05	-0.0023039233286837294
1.46420e-05	-0.002301069445874236
1.46423e-05	-0.002298215563064763
1.46425e-05	-0.002291987710682987
1.46428e-05	-0.0022782394809719602
1.46430e-05	-0.002260448503439416
1.46433e-05	-0.0022426575259067508
1.46435e-05	-0.00222076447547349
1.46438e-05	-0.002193441023338748
