Time(s)	Current(A)
1.42500e-05	-0.0006874519992022589
1.42503e-05	-0.000712744372619825
1.42505e-05	-0.0007341925327012598
1.42508e-05	-0.0007550644417260745
1.42510e-05	-0.0007759363507508892
1.42513e-05	-0.0007924994249102477
1.42515e-05	-0.00080841660082534
1.42518e-05	-0.0008204180124313994
1.42520e-05	-0.0008318324474249616
1.42523e-05	-0.0008392195016287626
1.42525e-05	-0.0008460028478086583
1.42528e-05	-0.0008486620282955216
1.42530e-05	-0.0008507029926139541
1.42533e-05	-0.0008485330037307828
1.42535e-05	-0.0008457317891531431
1.42538e-05	-0.0008388189119531347
1.42540e-05	-0.0008312896928062912
1.42543e-05	-0.000819903504154269
1.42545e-05	-0.0008079391522842305
1.42548e-05	-0.0007923817621248984
1.42550e-05	-0.00077628577227548
1.42553e-05	-0.0007568670281277036
1.42555e-05	-0.0007369502001044338
1.42558e-05	-0.0007140973524374547
1.42560e-05	-0.0006908043927698703
1.42563e-05	-0.0006650594392135157
1.42565e-05	-0.0006389469295549555
1.42568e-05	-0.0006113019332073988
1.42570e-05	-0.0005825677941257944
1.42573e-05	-0.0005529677026188085
1.42575e-05	-0.0005226537790716745
1.42578e-05	-0.0004917966973884147
1.42580e-05	-0.0004605766399855294
1.42583e-05	-0.0004291751401338007
1.42585e-05	-0.0003977736500817242
1.42588e-05	-0.00036655365372829826
1.42590e-05	-0.00033569593388439083
1.42593e-05	-0.0003053815720868097
1.42595e-05	-0.0002757990251259544
1.42598e-05	-0.0002471483498415183
1.42600e-05	-0.00021963554352129295
1.42603e-05	-0.0001934673844629341
1.42605e-05	-0.00016885063196912808
1.42608e-05	-0.0001459920649609562
1.42610e-05	-0.00012494213980615058
1.42613e-05	-0.00010520067503588844
1.42615e-05	-8.594824489057329e-05
1.42618e-05	-6.682081861276857e-05
1.42620e-05	-4.790353385427485e-05
1.42623e-05	-2.93528099694255e-05
1.42625e-05	-1.1327269473404293e-05
1.42628e-05	6.014486666839141e-06
1.42630e-05	2.2611758629669925e-05
1.42633e-05	3.874878504828952e-05
1.42635e-05	5.4909711809692364e-05
1.42638e-05	7.129341421443011e-05
1.42640e-05	8.777697795520588e-05
1.42643e-05	0.00010427076866058374
1.42645e-05	0.00012076455936584982
1.42648e-05	0.00013672916309004487
1.42650e-05	0.00015261444120695652
1.42653e-05	0.00016849971932376054
1.42655e-05	0.00018448527280351903
1.42658e-05	0.0002004858576508975
1.42660e-05	0.0002164864424981675
1.42663e-05	0.000232487027345546
1.42665e-05	0.00024848761219292443
1.42668e-05	0.0002642749951206105
1.42670e-05	0.0002796987976101946
1.42673e-05	0.00029512260009977877
1.42675e-05	0.0003105464025892584
1.42678e-05	0.00032597020507884255
1.42680e-05	0.0003413940075684267
1.42683e-05	0.00035625177230464745
1.42685e-05	0.0003710246874695875
1.42688e-05	0.00038507730934013646
1.42690e-05	0.00039902195859401385
1.42693e-05	0.0004121711189607255
1.42695e-05	0.00042520103482344225
1.42698e-05	0.00043768761127509
1.42700e-05	0.00044964797049471146
1.42703e-05	0.00046071724020770434
1.42705e-05	0.0004716629289080078
1.42708e-05	0.000481260968823942
1.42710e-05	0.0004906569949677461
1.42713e-05	0.0004987090422568974
1.42715e-05	0.0005065596258995653
1.42718e-05	0.0005129744318268732
1.42720e-05	0.0005191740133754448
1.42723e-05	0.0005253735949239743
1.42725e-05	0.000529644885762563
1.42728e-05	0.0005336271240788507
1.42730e-05	0.0005376093623951112
1.42733e-05	0.000539710487579729
1.42735e-05	0.000541529632203708
1.42738e-05	0.0005433487768276748
1.42740e-05	0.0005426711128876963
1.42743e-05	0.0005416191750846422
1.42745e-05	0.0005405672372815952
1.42748e-05	0.0005395152994785412
1.42750e-05	0.0005384633616754872
1.42753e-05	0.0005374114238724403
1.42755e-05	0.000535218591173175
1.42758e-05	0.0005310801518525698
1.42760e-05	0.0005269417125319926
1.42763e-05	0.0005228032732113873
1.42765e-05	0.000518664833890782
1.42768e-05	0.0005145263945702048
1.42770e-05	0.0005103879552495995
1.42773e-05	0.0005048546986520523
1.42775e-05	0.0004991123576825486
1.42778e-05	0.0004933700167130059
1.42780e-05	0.00048762767574346327
1.42783e-05	0.0004818853347739595
1.42785e-05	0.00047614299380441683
1.42788e-05	0.00047037851936265464
1.42790e-05	0.0004646107270933776
1.42793e-05	0.0004588429348241396
1.42795e-05	0.0004530751425548625
1.42798e-05	0.00044730735028558545
1.42800e-05	0.00044153955801634745
1.42803e-05	0.00043634804172196673
1.42805e-05	0.00043150838483505303
1.42808e-05	0.00042700879908277856
1.42810e-05	0.0004227171951866876
1.42813e-05	0.00041791236332149745
1.42815e-05	0.00041157564347416703
1.42818e-05	0.0004032482154000704
1.42820e-05	0.00039299061294839
1.42823e-05	0.000380944704819426
1.42825e-05	0.000367254925735638
1.42828e-05	0.0003520656926977944
1.42830e-05	0.00033541349767140865
1.42833e-05	0.000316965962236422
1.42835e-05	0.0002962043547896627
1.42838e-05	0.00027296067314909835
1.42840e-05	0.0002473922543558967
1.42843e-05	0.0002197073770818024
1.42845e-05	0.0001901158818415961
1.42848e-05	0.0001588276072524778
1.42850e-05	0.00012598480827963934
1.42853e-05	9.149861599855476e-05
1.42855e-05	5.5163492908382425e-05
1.42858e-05	1.6993618667583158e-05
1.42860e-05	-2.279307482339095e-05
1.42863e-05	-6.394672819978373e-05
1.42865e-05	-0.00010621654256736675
1.42868e-05	-0.0001493517251970814
1.42870e-05	-0.00019339937230074562
1.42873e-05	-0.00023756752730082504
1.42875e-05	-0.00028283418293629186
1.42878e-05	-0.0003282655048108658
1.42880e-05	-0.0003736968266857476
1.42883e-05	-0.000418883748119742
1.42885e-05	-0.0004640340337061508
1.42888e-05	-0.0005091843192928656
1.42890e-05	-0.0005521436147004939
1.42893e-05	-0.0005947744786970485
1.42895e-05	-0.0006374053426938921
1.42898e-05	-0.0006771717295844236
1.42900e-05	-0.0007165087287639524
1.42903e-05	-0.0007524696710820583
1.42905e-05	-0.0007879245394210604
1.42908e-05	-0.0008190244920782802
1.42910e-05	-0.0008494716389335749
1.42913e-05	-0.0008754429395981772
1.42915e-05	-0.0009007433068676708
1.42918e-05	-0.0009220835416458044
1.42920e-05	-0.0009428301489792261
1.42923e-05	-0.000959337456069666
1.42925e-05	-0.0009752092882169066
1.42928e-05	-0.0009864906205095563
1.42930e-05	-0.0009970838327191265
1.42933e-05	-0.0010023117596522843
1.42935e-05	-0.001006735425466396
1.42938e-05	-0.0010111590912804777
1.42940e-05	-0.0010099239111932513
1.42943e-05	-0.0010078404649836125
1.42945e-05	-0.001005757018773988
1.42948e-05	-0.0009981908157928026
1.42950e-05	-0.0009898027426091876
1.42953e-05	-0.0009814146694256294
1.42955e-05	-0.0009691805352877279
1.42958e-05	-0.000956369873131757
1.42960e-05	-0.0009410509279602735
1.42963e-05	-0.0009253559888946553
1.42965e-05	-0.000907432693860564
1.42968e-05	-0.0008891753662499371
1.42970e-05	-0.0008690390852827978
1.42973e-05	-0.000848621147506724
1.42975e-05	-0.0008269723153289518
1.42978e-05	-0.0008051389709664236
1.42980e-05	-0.0007826204127749291
1.42983e-05	-0.0007599991404102978
1.42985e-05	-0.0007371294264640362
1.42988e-05	-0.0007142224708996416
1.42990e-05	-0.0006914132873228621
1.42993e-05	-0.0006688868925082228
1.42995e-05	-0.0006468573821272681
1.42998e-05	-0.0006258887044413969
1.43000e-05	-0.0006050687845591958
1.43003e-05	-0.0005865723688439692
1.43005e-05	-0.0005684242485064928
1.43008e-05	-0.0005502761281691395
1.43010e-05	-0.0005347860661594981
1.43013e-05	-0.0005196944494991416
1.43015e-05	-0.0005051816693278049
1.43018e-05	-0.0004907556572699939
1.43020e-05	-0.0004766533330065321
1.43023e-05	-0.00046259952983652747
1.43025e-05	-0.0004485457266664276
1.43028e-05	-0.0004355330192608642
1.43030e-05	-0.00042267637305285876
1.43033e-05	-0.0004098197268447662
1.43035e-05	-0.0003968761581422089
1.43038e-05	-0.0003839195596791389
1.43040e-05	-0.00037096296121598107
1.43043e-05	-0.00035800636275282324
1.43045e-05	-0.00034506366355378527
1.43048e-05	-0.0003321446672396651
1.43050e-05	-0.00031922567092545736
1.43053e-05	-0.0003063066746112497
1.43055e-05	-0.0002933876782971295
1.43058e-05	-0.0002802174571602623
1.43060e-05	-0.0002670095771950687
1.43063e-05	-0.00025380169722996463
1.43065e-05	-0.0002405938172647711
1.43068e-05	-0.0002273859372995775
1.43070e-05	-0.00021448141624958011
1.43073e-05	-0.00020162236897547486
1.43075e-05	-0.0001887633217013696
1.43078e-05	-0.0001759042744273515
1.43080e-05	-0.00016304522715324625
1.43083e-05	-0.0001506909597188547
1.43085e-05	-0.00013841235923946172
1.43088e-05	-0.00012613375875998557
1.43090e-05	-0.00011462329353674243
1.43093e-05	-0.00010322797248383252
1.43095e-05	-9.22868431886914e-05
1.43098e-05	-8.172324864751138e-05
1.43100e-05	-7.15798803722814e-05
1.43103e-05	-6.19325185603902e-05
1.43105e-05	-5.285720424493489e-05
1.43108e-05	-4.442995947660313e-05
1.43110e-05	-3.6685766686834305e-05
1.43113e-05	-2.951293968101463e-05
1.43115e-05	-2.270970546167996e-05
1.43118e-05	-1.618713064879728e-05
1.43120e-05	-9.971418601631292e-06
1.43123e-05	-4.107140509807174e-06
1.43125e-05	1.3605588214043462e-06
1.43128e-05	6.3865493269000125e-06
1.43130e-05	1.0951415520272508e-05
1.43133e-05	1.5127606465650492e-05
1.43135e-05	1.9043996789663204e-05
1.43138e-05	2.2758767533779356e-05
1.43140e-05	2.625797974466347e-05
1.43143e-05	2.9516188002920418e-05
1.43145e-05	3.250758899534319e-05
1.43148e-05	3.5206394594020485e-05
1.43150e-05	3.7602922203370495e-05
1.43153e-05	3.97450343433702e-05
1.43155e-05	4.1715929809606984e-05
1.43158e-05	4.3554526855710314e-05
1.43160e-05	4.518767061420119e-05
1.43163e-05	4.6792521309193135e-05
1.43165e-05	4.8106019137387594e-05
1.43168e-05	4.937584290707713e-05
1.43170e-05	5.029738455369128e-05
1.43173e-05	5.116671839475313e-05
1.43175e-05	5.2036052235814965e-05
1.43178e-05	5.2690506423529473e-05
1.43180e-05	5.331274995667325e-05
1.43183e-05	5.393499348981702e-05
1.43185e-05	5.4341543235800006e-05
1.43188e-05	5.471576028781269e-05
1.43190e-05	5.508997733982537e-05
1.43193e-05	5.5311738079798315e-05
1.43195e-05	5.5510645480570756e-05
1.43198e-05	5.57095528813432e-05
1.43200e-05	5.590846028211429e-05
1.43203e-05	5.608473987748071e-05
1.43205e-05	5.62479117219812e-05
1.43208e-05	5.639872809762741e-05
1.43210e-05	5.641835268706419e-05
1.43213e-05	5.578880914249913e-05
1.43215e-05	5.3797455710447094e-05
1.43218e-05	5.012248028795037e-05
1.43220e-05	4.480007656216519e-05
1.43223e-05	3.7922399801513504e-05
1.43225e-05	2.9583322670186168e-05
1.43228e-05	1.9876727008294858e-05
1.43230e-05	8.822916599480266e-06
1.43233e-05	-3.8078267425368258e-06
1.43235e-05	-1.8367120117684044e-05
1.43238e-05	-3.4961744762548866e-05
1.43240e-05	-5.347421325797913e-05
1.43243e-05	-7.375200388809924e-05
1.43245e-05	-9.564152023906679e-05
1.43248e-05	-0.00011898917950041671
1.43250e-05	-0.0001436874900134506
1.43253e-05	-0.00016978556410449937
1.43255e-05	-0.0001974088888513365
1.43258e-05	-0.000226529521415243
1.43260e-05	-0.0002574633573825377
1.43263e-05	-0.0002886398680567397
1.43265e-05	-0.0003214213085649906
1.43268e-05	-0.0003544433295084534
1.43270e-05	-0.00038873534014949947
1.43273e-05	-0.00042321772339634346
1.43275e-05	-0.00045770010664318746
1.43278e-05	-0.0004930569286653306
1.43280e-05	-0.0005285448298519011
1.43283e-05	-0.0005640327310384716
1.43285e-05	-0.000598863714819195
1.43288e-05	-0.000633596226086261
1.43290e-05	-0.000668328737353327
1.43293e-05	-0.0007010326127544754
1.43295e-05	-0.0007334323938027733
1.43298e-05	-0.0007658321748510713
1.43300e-05	-0.0007948471165175337
1.43303e-05	-0.0008233546676956767
1.43305e-05	-0.0008518622188740129
1.43308e-05	-0.0008753287546985649
1.43310e-05	-0.0008980396377570186
1.43313e-05	-0.0009207505208156262
1.43315e-05	-0.0009381667162344643
1.43318e-05	-0.0009547892331818396
1.43320e-05	-0.0009714117501293276
1.43323e-05	-0.0009825940646177006
1.43325e-05	-0.000992960887831426
1.43328e-05	-0.0010033277110452219
1.43330e-05	-0.0010079416031749024
1.43333e-05	-0.0010116931257258743
1.43335e-05	-0.0010154446482768715
1.43338e-05	-0.0010140593492189867
1.43340e-05	-0.0010119040359506926
1.43343e-05	-0.001009748722682384
1.43345e-05	-0.0010027563915286318
1.43348e-05	-0.0009950389870141154
1.43350e-05	-0.0009873215824995468
1.43353e-05	-0.0009753247869259865
1.43355e-05	-0.0009626865067578964
1.43358e-05	-0.0009500482265897207
1.43360e-05	-0.0009345554498376016
1.43363e-05	-0.0009186347814629625
1.43365e-05	-0.0009007857295764357
1.43368e-05	-0.0008826476112553597
1.43370e-05	-0.0008629189707382638
1.43373e-05	-0.0008429519095036257
1.43375e-05	-0.0008219248460396401
1.43378e-05	-0.0008007388872817871
1.43380e-05	-0.000778982039330959
1.43383e-05	-0.0007571396145731803
1.43385e-05	-0.0007351538853904233
1.43388e-05	-0.0007131466747447478
1.43390e-05	-0.0006914502438647825
1.43393e-05	-0.000669800399153136
1.43395e-05	-0.0006490360958088325
1.43398e-05	-0.0006284045359172063
1.43400e-05	-0.000609672050719899
1.43403e-05	-0.0005912242385390579
1.43405e-05	-0.0005727764263580917
1.43408e-05	-0.000556891768967243
1.43410e-05	-0.0005413913308005658
1.43413e-05	-0.0005269291790035652
1.43415e-05	-0.0005120574981090623
1.43418e-05	-0.000497101097845109
1.43420e-05	-0.0004812682171436106
1.43423e-05	-0.00046530395123083935
1.43425e-05	-0.00044896879463581413
1.43428e-05	-0.00043257804119152993
1.43430e-05	-0.0004161872877472457
1.43433e-05	-0.0003990738112626215
1.43435e-05	-0.00038185199793964525
1.43438e-05	-0.0003626621827381541
1.43440e-05	-0.0003431773622730393
1.43443e-05	-0.00032369254180779247
1.43445e-05	-0.0003028818980946726
1.43448e-05	-0.0002818725122761994
1.43450e-05	-0.000260199577868853
1.43453e-05	-0.00023842717692715323
1.43455e-05	-0.0002154717804936937
1.43458e-05	-0.000192339051964531
1.43460e-05	-0.0001681393609947259
1.43463e-05	-0.0001437797313889942
1.43465e-05	-0.00011889374528825335
1.43468e-05	-9.392885787226312e-05
1.43470e-05	-6.883748443300054e-05
1.43473e-05	-4.372715062447294e-05
1.43475e-05	-1.843039229941009e-05
1.43478e-05	7.01081884061529e-06
1.43480e-05	3.245283594368292e-05
1.43483e-05	5.773876934729939e-05
1.43485e-05	8.27111892375252e-05
1.43488e-05	0.00010721269783086753
1.43490e-05	0.00013111043635768583
1.43493e-05	0.00015435704744065176
1.43495e-05	0.00017695237939719478
1.43498e-05	0.00019882173511712468
1.43500e-05	0.00021981867605676346
1.43503e-05	0.0002397854105315223
1.43505e-05	0.00025856386425655506
1.43508e-05	0.00027599594901865014
1.43510e-05	0.000291849389612222
1.43513e-05	0.0003056545711784319
1.43515e-05	0.00031686420759921194
1.43518e-05	0.0003252266780142449
1.43520e-05	0.0003307369546827084
1.43523e-05	0.0003334278268917037
1.43525e-05	0.00033333317908779006
1.43528e-05	0.00033048696405922016
1.43530e-05	0.0003248766264542257
1.43533e-05	0.00031634095300863644
1.43535e-05	0.0003046701065412235
1.43538e-05	0.0002898394878538655
1.43540e-05	0.00027197897416508153
1.43543e-05	0.0002512420771996805
1.43545e-05	0.00022778301815535584
1.43548e-05	0.00020175605619466585
1.43550e-05	0.00017328629921236594
1.43553e-05	0.00014240572277171004
1.43555e-05	0.00010911588751485814
1.43558e-05	7.353435339711858e-05
1.43560e-05	3.587545479259835e-05
1.43563e-05	-3.631698738080023e-06
1.43565e-05	-4.475755033565863e-05
1.43568e-05	-8.727256022711986e-05
1.43570e-05	-0.00013096543403964443
1.43573e-05	-0.00017606319189881163
1.43575e-05	-0.00022134905767970907
1.43578e-05	-0.00026783717131893467
1.43580e-05	-0.0003145055030006796
1.43583e-05	-0.0003611738346827408
1.43585e-05	-0.0004076694603196336
1.43588e-05	-0.00045413919716361995
1.43590e-05	-0.0004993885431986014
1.43593e-05	-0.0005444549515459399
1.43595e-05	-0.000587496824225033
1.43598e-05	-0.0006302352171741373
1.43600e-05	-0.0006699737843261806
1.43603e-05	-0.0007092626748739648
1.43605e-05	-0.000744487915607048
1.43608e-05	-0.0007791040115522871
1.43610e-05	-0.0008091951601816273
1.43613e-05	-0.0008386080151101506
1.43615e-05	-0.0008653342284441187
1.43618e-05	-0.0008916577117694813
1.43620e-05	-0.0009150398350736638
1.43623e-05	-0.000937981045846506
1.43625e-05	-0.0009609222566191927
1.43628e-05	-0.0009793459949216372
1.43630e-05	-0.0009970925600090253
1.43633e-05	-0.001014839125096293
1.43635e-05	-0.0010295052946670716
1.43638e-05	-0.001043709710159785
1.43640e-05	-0.0010579141256524985
1.43643e-05	-0.001068251829648599
1.43645e-05	-0.0010780099100890879
1.43648e-05	-0.0010877679905295764
1.43650e-05	-0.0010975260709699991
1.43653e-05	-0.001107284151410488
1.43655e-05	-0.0011153832785923109
1.43658e-05	-0.001120653336712114
1.43660e-05	-0.0011259233948319528
1.43663e-05	-0.0011311934529517917
1.43665e-05	-0.0011364635110715949
1.43668e-05	-0.0011417335691914338
1.43670e-05	-0.0011439974931140996
1.43673e-05	-0.0011458107947976276
1.43675e-05	-0.0011476240964811675
1.43678e-05	-0.0011494373981647077
1.43680e-05	-0.0011512506998482355
1.43683e-05	-0.0011530640015317757
1.43685e-05	-0.0011548773032153158
1.43688e-05	-0.0011551513315530863
1.43690e-05	-0.0011551946214220458
1.43693e-05	-0.0011552379112910053
1.43695e-05	-0.0011552812011599643
1.43698e-05	-0.0011553244910289238
1.43700e-05	-0.0011553677808978833
1.43703e-05	-0.0011554110707668423
1.43705e-05	-0.0011552829261097855
1.43708e-05	-0.0011551290832619912
1.43710e-05	-0.0011544321920670597
1.43713e-05	-0.0011536538974329857
1.43715e-05	-0.0011499822302714995
1.43718e-05	-0.0011458768439473004
1.43720e-05	-0.0011382377962680457
1.43723e-05	-0.0011300690495507715
1.43725e-05	-0.0011180413254166766
1.43728e-05	-0.0011054351370723035
1.43730e-05	-0.0010928289487278447
1.43733e-05	-0.0010748610522371836
1.43735e-05	-0.001056089430838683
1.43738e-05	-0.0010373178094400552
1.43740e-05	-0.0010124689870382102
1.43743e-05	-0.0009867091867011297
1.43745e-05	-0.0009609493863638747
1.43748e-05	-0.0009311344656347738
1.43750e-05	-0.0009007116786857776
1.43753e-05	-0.0008672069101356962
1.43755e-05	-0.0008332401497517773
1.43758e-05	-0.000796824179566552
1.43760e-05	-0.0007586286792092555
1.43763e-05	-0.0007190161539682215
1.43765e-05	-0.0006782250351028392
1.43768e-05	-0.0006364934956810078
1.43770e-05	-0.0005940237232431925
1.43773e-05	-0.0005508949282836348
1.43775e-05	-0.0005071262751823467
1.43778e-05	-0.0004628572454722054
1.43780e-05	-0.00041833737438511093
1.43783e-05	-0.0003738334671691992
1.43785e-05	-0.0003296127956817675
1.43788e-05	-0.00028594259508833567
1.43790e-05	-0.0002430674444352391
1.43793e-05	-0.00020115487547440133
1.43795e-05	-0.0001603348800794862
1.43798e-05	-0.00012081272300614842
1.43800e-05	-8.286266595931006e-05
1.43803e-05	-4.676971566302344e-05
1.43805e-05	-1.281915861459913e-05
1.43808e-05	1.8703752020945703e-05
1.43810e-05	4.755020650602354e-05
1.43813e-05	7.362205879209766e-05
1.43815e-05	9.696401753779053e-05
1.43818e-05	0.00011758808297877373
1.43820e-05	0.0001354323672273288
1.43823e-05	0.00015042199946802343
1.43825e-05	0.00016248169600379487
1.43828e-05	0.00017153619243208892
1.43830e-05	0.00017753308105056528
1.43833e-05	0.00018051431843801681
1.43835e-05	0.0001806113592146592
1.43838e-05	0.00017793514000541996
1.43840e-05	0.0001725503215171135
1.43843e-05	0.000164513458656772
1.43845e-05	0.00015388078571576929
1.43848e-05	0.00014070861987907854
1.43850e-05	0.00012506754106159134
1.43853e-05	0.00010708725033234078
1.43855e-05	8.695351647490811e-05
1.43858e-05	6.483922495775908e-05
1.43860e-05	4.088827521661598e-05
1.43863e-05	1.5239467427833135e-05
1.43865e-05	-1.1968581846660155e-05
1.43868e-05	-4.059724702853129e-05
1.43870e-05	-7.049894775334622e-05
1.43873e-05	-0.00010148908254676473
1.43875e-05	-0.0001336218025624305
1.43878e-05	-0.00016590501185581274
1.43880e-05	-0.00019900478154812368
1.43883e-05	-0.0002322269543842759
1.43885e-05	-0.0002654491272204281
1.43888e-05	-0.0002983131781982877
1.43890e-05	-0.00033112354638539234
1.43893e-05	-0.00036393391457249704
1.43895e-05	-0.00039519244246619215
1.43898e-05	-0.00042621834809373924
1.43900e-05	-0.0004550680360656092
1.43903e-05	-0.00048359150703920523
1.43905e-05	-0.0005091653669776925
1.43908e-05	-0.0005342970775498607
1.43910e-05	-0.0005556620482707222
1.43913e-05	-0.0005764623812750261
1.43915e-05	-0.0005927078000911625
1.43918e-05	-0.0006082704331436308
1.43920e-05	-0.0006190163974399963
1.43923e-05	-0.0006290403387259045
1.43925e-05	-0.0006341634306628819
1.43928e-05	-0.000638551880842116
1.43930e-05	-0.0006379288269663573
1.43933e-05	-0.0006365545440921857
