Time(s)	Current(A)
1.17500e-05	0.0033182778734181287
1.17503e-05	0.0033084435726914766
1.17505e-05	0.0032986092719648912
1.17508e-05	0.003288774971238239
1.17510e-05	0.003278551290624911
1.17513e-05	0.0032604234071509914
1.17515e-05	0.003242295523676949
1.17518e-05	0.0032241676402029068
1.17520e-05	0.003206039756728987
1.17523e-05	0.0031879118732549452
1.17525e-05	0.003169783989780903
1.17528e-05	0.0031516561063069833
1.17530e-05	0.003133528222832941
1.17533e-05	0.0031154003393588986
1.17535e-05	0.003097272455884979
1.17538e-05	0.0030791445724109366
1.17540e-05	0.0030611375931838664
1.17543e-05	0.0030455849053261396
1.17545e-05	0.0030300322174683075
1.17548e-05	0.0030144795296104753
1.17550e-05	0.0029989268417527485
1.17553e-05	0.0029833741538949164
1.17555e-05	0.002967821466037084
1.17558e-05	0.002952268778179357
1.17560e-05	0.002936716090321525
1.17563e-05	0.0029211634024636926
1.17565e-05	0.002905610714605966
1.17568e-05	0.0028911027904910858
1.17570e-05	0.002877460267408137
1.17572e-05	0.0028638177443252805
1.17575e-05	0.0028501752212423317
1.17578e-05	0.002836532698159383
1.17580e-05	0.0028228901750765264
1.17583e-05	0.0028092476519935776
1.17585e-05	0.0027956051289106288
1.17588e-05	0.00278196260582768
1.17590e-05	0.0027683200827448235
1.17593e-05	0.0027544939462402014
1.17595e-05	0.002736940555748625
1.17598e-05	0.0027193871652571675
1.17600e-05	0.002701833774765591
1.17603e-05	0.0026842803842740148
1.17605e-05	0.002666726993782557
1.17608e-05	0.002649173603290981
1.17610e-05	0.0026316202127994043
1.17613e-05	0.002614066822307947
1.17615e-05	0.0025965134318163704
1.17618e-05	0.0025789600413247938
1.17620e-05	0.0025607861938773758
1.17623e-05	0.002542098408141224
1.17625e-05	0.0025234106224050717
1.17628e-05	0.002504722836669046
1.17630e-05	0.002486035050932894
1.17633e-05	0.002467347265196742
1.17635e-05	0.0024486594794607165
1.17638e-05	0.0024299716937245643
1.17640e-05	0.002411283907988412
1.17643e-05	0.002392596122252387
1.17645e-05	0.0023739949607537994
1.17648e-05	0.002357262512807297
1.17650e-05	0.0023427688518060704
1.17653e-05	0.002328275190804746
1.17655e-05	0.002313781529803421
1.17657e-05	0.002299287868802195
1.17660e-05	0.0022847483401023426
1.17663e-05	0.0022692777217202466
1.17665e-05	0.002253807103338255
1.17668e-05	0.0022383364849561586
1.17670e-05	0.0022228658665740626
1.17673e-05	0.0022067748527108
1.17675e-05	0.0021780901432829087
1.17678e-05	0.0021494054338548237
1.17680e-05	0.0021207207244267386
1.17683e-05	0.0020920360149988475
1.17685e-05	0.0020633513055707624
1.17688e-05	0.002034666596142677
1.17690e-05	0.0020059818867147862
1.17693e-05	0.001977297177286701
1.17695e-05	0.0019477431848496
1.17698e-05	0.0019005432134969057
1.17700e-05	0.0018533432421438914
1.17703e-05	0.001806143270790877
1.17705e-05	0.0017589432994381826
1.17708e-05	0.0017117433280851684
1.17710e-05	0.001664543356732154
1.17713e-05	0.0016173433853794595
1.17715e-05	0.0015701434140264453
1.17718e-05	0.0015225417869480368
1.17720e-05	0.0014667867640351972
1.17723e-05	0.0014110317411219796
1.17725e-05	0.001355276718208762
1.17728e-05	0.0012995216952959223
1.17730e-05	0.0012437740138379696
1.17733e-05	0.00118817535998503
1.17735e-05	0.001132576706132467
1.17738e-05	0.0010769780522795274
1.17740e-05	0.001021379398426588
1.17742e-05	0.0009660037691524208
1.17745e-05	0.0009151554192235649
1.17748e-05	0.000864307069294709
1.17750e-05	0.0008136955102663058
1.17753e-05	0.0007678906795326191
1.17755e-05	0.0007223531229713438
1.17758e-05	0.0006822410887864856
1.17760e-05	0.0006423737829858938
1.17763e-05	0.0006076640693038509
1.17765e-05	0.0005770092401736755
1.17768e-05	0.0005506898598525079
1.17770e-05	0.0005288052086736817
1.17773e-05	0.0005113950479354221
1.17775e-05	0.0004984992334885303
1.17778e-05	0.0004901573047316898
1.17780e-05	0.00048641044293477615
1.17783e-05	0.0004873272107306351
1.17785e-05	0.0004929884073525217
1.17788e-05	0.0005033843988840461
1.17790e-05	0.0005183920413701185
1.17793e-05	0.0005378508590224374
1.17795e-05	0.0005616004287946979
1.17798e-05	0.0005894802748983697
1.17800e-05	0.0006213307968672285
1.17803e-05	0.000657009550456576
1.17805e-05	0.0006964582631824946
1.17808e-05	0.0007408066800324654
1.17810e-05	0.0007854337300328371
1.17813e-05	0.0008357168835738825
1.17815e-05	0.0008862702376853089
1.17818e-05	0.000942308518479085
1.17820e-05	0.0009983467992724813
1.17823e-05	0.0010546345093608526
1.17825e-05	0.001115985500378969
1.17827e-05	0.0011773364913966698
1.17830e-05	0.0012386874824147863
1.17833e-05	0.0013000384734329028
1.17835e-05	0.0013613484939707157
1.17838e-05	0.0014218268357364175
1.17840e-05	0.0014823051775021193
1.17843e-05	0.001542783519267821
1.17845e-05	0.001603261861033113
1.17848e-05	0.0016634055540681078
1.17850e-05	0.0017167560573140973
1.17853e-05	0.0017701065605597252
1.17855e-05	0.0018230005439299857
1.17858e-05	0.0018666274186152731
1.17860e-05	0.001910254293300265
1.17863e-05	0.00195338946210501
1.17865e-05	0.001986543265192781
1.17868e-05	0.002019697068280327
1.17870e-05	0.0020523863297465545
1.17873e-05	0.0020756456453862888
1.17875e-05	0.0020989049610258656
1.17878e-05	0.0021217500563269157
1.17880e-05	0.002136186700859582
1.17883e-05	0.0021495660343992477
1.17885e-05	0.0021566497223084926
1.17888e-05	0.0021635165961520664
1.17890e-05	0.0016922447011302438
1.17893e-05	-0.016903468265675858
1.17895e-05	-0.01572325257657532
1.17898e-05	-0.012562719568555291
1.17900e-05	-0.009692272323643239
1.17903e-05	0.0043573354438485885
1.17905e-05	0.005483841175486756
1.17908e-05	0.004849269729114809
1.17910e-05	0.003886247162979447
1.17912e-05	0.000452524431133758
1.17915e-05	-0.008365782039765313
1.17918e-05	-0.005119212754565972
1.17920e-05	-0.001243849082422453
1.17923e-05	0.004324510523281229
1.17925e-05	0.006970629881646598
1.17928e-05	0.005515295384858562
1.17930e-05	0.0020603554935435474
1.17933e-05	-0.002601207430835916
1.17935e-05	-0.004596188317460492
1.17938e-05	-0.002731718550935705
1.17940e-05	0.0003404450302895107
1.17943e-05	0.0037699789417575836
1.17945e-05	0.005377283937767316
1.17948e-05	0.004422716179691829
1.17950e-05	0.0022220896660254856
1.17953e-05	-0.0007285470339104007
1.17955e-05	-0.002003675782276481
1.17958e-05	-0.0008567552145906695
1.17960e-05	0.0010506088494824303
1.17963e-05	0.0031852307260279507
1.17965e-05	0.0041811435526507785
1.17968e-05	0.003574489972900922
1.17970e-05	0.0021892003675849083
1.17973e-05	0.000335820781955134
1.17975e-05	-0.00046652277046308334
1.17978e-05	0.00024952231095392826
1.17980e-05	0.0014428964183526136
1.17983e-05	0.0027794609757913575
1.17985e-05	0.0034034936343379516
1.17988e-05	0.0030244166295897283
1.17990e-05	0.002158319984406555
1.17993e-05	0.0009996861562255738
1.17995e-05	0.0005000046812349121
1.17997e-05	0.0009518843305827159
1.18000e-05	0.0017030872252374533
1.18003e-05	0.0025442329941008637
1.18005e-05	0.002939259026986504
1.18008e-05	0.0027061435822625293
1.18010e-05	0.002168156239863613
1.18013e-05	0.0014470934129889377
1.18015e-05	0.0011389081678804369
1.18018e-05	0.001426797128320527
1.18020e-05	0.0019021175109312117
1.18023e-05	0.00243365733960218
1.18025e-05	0.00268559306767381
1.18028e-05	0.0025438930846856805
1.18030e-05	0.002211035944338804
1.18033e-05	0.001763285379208277
1.18035e-05	0.0015738959090141485
1.18038e-05	0.0017575497442809964
1.18040e-05	0.0020582084948098634
1.18043e-05	0.002393631721678135
1.18045e-05	0.0025534240602575896
1.18048e-05	0.002466133048150064
1.18050e-05	0.002258565623295078
1.18053e-05	0.0019784599371034605
1.18055e-05	0.0018595758578279136
1.18058e-05	0.001973690215706689
1.18060e-05	0.002160382136846809
1.18063e-05	0.0023682257801151394
1.18065e-05	0.0024657034941301796
1.18068e-05	0.0024083316668793695
1.18070e-05	0.0022756515634061326
1.18073e-05	0.002097580899114956
1.18075e-05	0.002020543462146311
1.18078e-05	0.0020894881670185435
1.18080e-05	0.002203918339794277
1.18082e-05	0.0023316176099033824
1.18085e-05	0.0023902055463316933
1.18088e-05	0.0023518246422724372
1.18090e-05	0.002266305438964757
1.18093e-05	0.0021523914494167547
1.18095e-05	0.002101800074539083
1.18098e-05	0.0021426796266100293
1.18100e-05	0.002212073177472245
1.18103e-05	0.0022897981077258365
1.18105e-05	0.0023242525240338174
1.18108e-05	0.0022979910363815385
1.18110e-05	0.0022422309906151676
1.18113e-05	0.0021687146403374666
1.18115e-05	0.002134892297034396
1.18118e-05	0.0021583910464368743
1.18120e-05	0.002199770988676616
1.18123e-05	0.0022463882374367454
1.18125e-05	0.002265919855061169
1.18128e-05	0.00224744056446542
1.18130e-05	0.0022105068722300275
1.18133e-05	0.0021624752248184348
1.18135e-05	0.0021393312638912656
1.18138e-05	0.002152113170327258
1.18140e-05	0.002176113226303549
1.18143e-05	0.002203410324116372
1.18145e-05	0.00221375758833638
1.18148e-05	0.0022003127263953786
1.18150e-05	0.002175327153769828
1.18153e-05	0.0021434092749833865
1.18155e-05	0.0021270996187940563
1.18158e-05	0.002133310433845255
1.18160e-05	0.0021465155852945753
1.18163e-05	0.0021613883361273397
1.18165e-05	0.0021644490959199115
1.18167e-05	0.0021507236788649194
1.18170e-05	0.002127709174328417
1.18173e-05	0.0020983827486711405
1.18175e-05	0.0020769810881162134
1.18178e-05	0.0020679504251287736
1.18180e-05	0.0020615855490778187
1.18183e-05	0.0020548743221897947
1.18185e-05	0.002039447380123511
1.18188e-05	0.002012158140217089
1.18190e-05	0.0019767589330967786
1.18193e-05	0.0019376936763820898
1.18195e-05	0.0019034780755648583
1.18198e-05	0.001875245908417433
1.18200e-05	0.0018478686561688065
1.18203e-05	0.0018198717025920033
1.18205e-05	0.0017845962348094152
1.18208e-05	0.0017431441147514578
1.18210e-05	0.0016974221752672721
1.18213e-05	0.0016480768053508629
1.18215e-05	0.001602443679827359
1.18218e-05	0.0015599608185096648
1.18220e-05	0.001517948690575084
1.18223e-05	0.0014763360337883282
1.18225e-05	0.0014307618170952244
1.18228e-05	0.0013818257634503586
1.18230e-05	0.001331067829920898
1.18233e-05	0.0012787638228079182
1.18235e-05	0.0012303211309065956
1.18238e-05	0.0011851552068619549
1.18240e-05	0.001139989282817008
1.18243e-05	0.0010964180166500384
1.18245e-05	0.0010529653877515955
1.18248e-05	0.0010084650489066405
1.18250e-05	0.0009646930400873882
1.18252e-05	0.0009215391026473151
1.18255e-05	0.0008826587158637392
1.18258e-05	0.0008474049258893626
1.18260e-05	0.0008147440581892324
1.18263e-05	0.0007862592135781071
1.18265e-05	0.0007606032865614663
1.18268e-05	0.0007379367713020326
1.18270e-05	0.0007191810282702352
1.18273e-05	0.0007046042806675358
1.18275e-05	0.0006955388134737327
1.18278e-05	0.0006923723329935734
1.18280e-05	0.0006941591535355591
1.18283e-05	0.0007007089145295072
1.18285e-05	0.0007115056058176584
1.18288e-05	0.0007264425180450287
1.18290e-05	0.0007458894336888661
1.18293e-05	0.0007698071255631797
1.18295e-05	0.0007988227675102267
1.18298e-05	0.0008329718117261552
1.18300e-05	0.0008714545648736422
1.18303e-05	0.0009139444433076526
1.18305e-05	0.0009608126732487181
1.18308e-05	0.001009845235195046
1.18310e-05	0.0010622537584214116
1.18313e-05	0.001117527171148231
1.18315e-05	0.0011767451931802143
1.18318e-05	0.0012393106676407365
1.18320e-05	0.001301876142101259
1.18323e-05	0.001367432031281741
1.18325e-05	0.0014355256295846086
1.18328e-05	0.0015036192278874761
1.18330e-05	0.0015717128261898824
1.18333e-05	0.0016398315174856164
1.18335e-05	0.0017085379519126526
1.18337e-05	0.0017772443863392233
1.18340e-05	0.0018459508207662595
1.18343e-05	0.0019146572551932955
1.18345e-05	0.001980190908133903
1.18348e-05	0.002043032092881619
1.18350e-05	0.0021058732776293347
1.18352e-05	0.0021638780101053932
1.18355e-05	0.0022177784593316935
1.18358e-05	0.0022716789085579932
1.18360e-05	0.002318660490182126
1.18363e-05	0.0023597706208296656
1.18365e-05	0.002400880751477484
1.18368e-05	0.0024340082095562366
1.18370e-05	0.0024603614563988795
1.18373e-05	0.002486714703241701
1.18375e-05	0.0025048804848785728
1.18378e-05	0.0025160982652897654
1.18380e-05	0.002527316045701034
1.18383e-05	0.0025300110434008406
1.18385e-05	0.0025254734845968955
1.18388e-05	0.002520935925792919
1.18390e-05	0.00250844965859439
1.18393e-05	0.0024892180026490963
1.18395e-05	0.0024699863467036723
1.18398e-05	0.0024435536140323872
1.18400e-05	0.002411009943646532
1.18403e-05	0.002378466273260456
1.18405e-05	0.002339589816701761
1.18408e-05	0.0022953392663326395
1.18410e-05	0.0022510887159632176
1.18413e-05	0.0022003747896701025
1.18415e-05	0.002144175949217617
1.18418e-05	0.002087977108764751
1.18420e-05	0.002031778268311885
1.18422e-05	0.0019755794278593997
1.18425e-05	0.00191907682351585
1.18428e-05	0.0018554592790978185
1.18430e-05	0.001791841734680218
1.18433e-05	0.0017282241902621864
1.18435e-05	0.001664606645844155
1.18437e-05	0.0016009891014265546
1.18440e-05	0.0015397391965993525
1.18443e-05	0.0014804985049251
1.18445e-05	0.0014212578132508477
1.18448e-05	0.0013620171215769968
1.18450e-05	0.0013027764299027443
1.18453e-05	0.001243535738228492
1.18455e-05	0.0011926958059362248
1.18458e-05	0.0011489848793885783
1.18460e-05	0.0011052739528409317
1.18463e-05	0.0010615630262935812
1.18465e-05	0.0010178520997459347
1.18468e-05	0.0009741411731982883
1.18470e-05	0.0009346038517405111
1.18473e-05	0.0008986083118418375
1.18475e-05	0.0008626127719431638
1.18478e-05	0.0008294703591489068
1.18480e-05	0.0007987491512234778
1.18483e-05	0.000768027943298049
1.18485e-05	0.0007388131136854459
1.18488e-05	0.0007108766184657781
1.18490e-05	0.0006829401232461103
1.18493e-05	0.0006560254081001263
1.18495e-05	0.0006299777902822077
1.18498e-05	0.0006039301724642893
1.18500e-05	0.0005794263292365722
1.18503e-05	0.0005562325554230265
1.18505e-05	0.0005330387816094808
1.18507e-05	0.0005103603322777383
1.18510e-05	0.00048811919474397916
1.18513e-05	0.0004658780572102201
1.18515e-05	0.0004444986871349198
1.18518e-05	0.0004238506253714246
1.18520e-05	0.0004032025636079294
1.18522e-05	0.00038348207751493163
1.18525e-05	0.0003645487455330094
1.18528e-05	0.0003456154135510872
1.18530e-05	0.00032723428278972537
1.18533e-05	0.0003093217579599177
1.18535e-05	0.0002914092331299886
1.18538e-05	0.00027432671306269296
1.18540e-05	0.00025794854702519226
1.18543e-05	0.00024228428201148076
1.18545e-05	0.00022722584371784492
1.18548e-05	0.00021255172223401018
1.18550e-05	0.0001984938053454284
1.18553e-05	0.00018502449090968906
1.18555e-05	0.00017224222896072044
1.18558e-05	0.0001602440905083196
1.18560e-05	0.000149112701698925
1.18563e-05	0.00013884402674964056
1.18565e-05	0.00012930106773388302
1.18568e-05	0.00012034607412947619
1.18570e-05	0.00011195528259539712
1.18573e-05	0.00010416867371135094
1.18575e-05	9.703411557434139e-05
1.18578e-05	9.059860013743816e-05
1.18580e-05	8.490008433577944e-05
1.18583e-05	7.992223771595571e-05
1.18585e-05	7.556543441735938e-05
1.18588e-05	7.172960568683477e-05
1.18590e-05	6.838607624549708e-05
1.18592e-05	6.554609520116168e-05
1.18595e-05	6.322586225089432e-05
1.18598e-05	6.14410263852727e-05
1.18600e-05	6.020157078976887e-05
1.18603e-05	5.9483471399661676e-05
1.18605e-05	5.921054150869813e-05
1.18607e-05	5.93063126315334e-05
1.18610e-05	5.973904595330963e-05
1.18613e-05	6.0502019697014925e-05
1.18615e-05	6.159160325203181e-05
1.18618e-05	6.300382226301128e-05
1.18620e-05	6.473116325951437e-05
1.18623e-05	6.674479878374879e-05
1.18625e-05	6.89832368343719e-05
1.18628e-05	7.138482378030888e-05
1.18630e-05	7.394405792290703e-05
1.18633e-05	7.658241474124104e-05
1.18635e-05	7.93376581671274e-05
1.18638e-05	8.219209325643776e-05
1.18640e-05	8.504652834572878e-05
1.18643e-05	8.789777306256957e-05
1.18645e-05	9.067429096121216e-05
1.18648e-05	9.345080885983593e-05
1.18650e-05	9.622732675847852e-05
1.18653e-05	9.885161706052464e-05
1.18655e-05	0.00010125471534131676
1.18658e-05	0.00010347467212370907
1.18660e-05	0.00010553606706812734
1.18663e-05	0.00010778954773273
1.18665e-05	0.00011103432538460172
1.18668e-05	0.00011596676924368333
1.18670e-05	0.00012276399309356866
1.18673e-05	0.0001313296697661127
1.18675e-05	0.0001415392772050902
1.18678e-05	0.00015326822239900177
1.18680e-05	0.00016642232225822122
1.18683e-05	0.00018111160324080802
1.18685e-05	0.000197727043795601
1.18688e-05	0.00021659519826760848
1.18690e-05	0.0002377173009700097
1.18692e-05	0.0002609233156642652
1.18695e-05	0.0002860255922987288
1.18698e-05	0.0003128364173769867
1.18700e-05	0.00034118711234465036
1.18703e-05	0.00037150435934715824
1.18705e-05	0.0004029178406851079
1.18708e-05	0.0004361477546241962
1.18710e-05	0.00047091911950468635
1.18713e-05	0.0005073459912431233
1.18715e-05	0.0005451777500129732
1.18718e-05	0.0005830095087825668
1.18720e-05	0.0006222548636325548
1.18723e-05	0.0006626998165340076
1.18725e-05	0.0007031447694351863
1.18728e-05	0.0007435897223366391
1.18730e-05	0.0007840346752380919
1.18733e-05	0.000824356658095585
1.18735e-05	0.0008645742867981064
1.18738e-05	0.0009047919155006277
1.18740e-05	0.0009450095442028765
1.18743e-05	0.0009852271729053979
1.18745e-05	0.0010234343365899351
1.18748e-05	0.0010599353906208411
1.18750e-05	0.0010964364446519948
1.18753e-05	0.0011301552492285877
1.18755e-05	0.0011615129967310002
1.18758e-05	0.0011928707442336252
1.18760e-05	0.001220741181284617
1.18763e-05	0.0012456522363153704
1.18765e-05	0.0012705632913462925
1.18768e-05	0.0012934363069837616
1.18770e-05	0.0013145798129542553
1.18773e-05	0.0013357233189248922
1.18775e-05	0.0013523827330949034
1.18777e-05	0.0013652368821942557
1.18780e-05	0.001378091031293695
1.18783e-05	0.0013909451803931344
1.18785e-05	0.001403799329492574
1.18788e-05	0.001416653478591926
1.18790e-05	0.0014295076276913655
1.18793e-05	0.001442361776790805
1.18795e-05	0.0014552159258901572
1.18798e-05	0.0014680700749895965
1.18800e-05	0.0014763164905183391
1.18803e-05	0.0014806527167841872
1.18805e-05	0.0014849889430500647
1.18808e-05	0.0014893251693159422
1.18810e-05	0.0014936613955817903
1.18813e-05	0.0014979976218476678
1.18815e-05	0.0015023338481135453
1.18818e-05	0.0015066700743793934
1.18820e-05	0.001511006300645271
1.18823e-05	0.0015153425269111484
1.18825e-05	0.0015175297298609962
1.18828e-05	0.0015178932405839121
1.18830e-05	0.0015182567513068281
1.18833e-05	0.0015186202620297417
1.18835e-05	0.0015189837727526577
1.18838e-05	0.0015193472834755736
1.18840e-05	0.0015197107941984872
1.18843e-05	0.0015200323324979174
1.18845e-05	0.0015193707675070379
1.18848e-05	0.0015187092025161632
1.18850e-05	0.0015180476375252839
1.18853e-05	0.0015173860725344046
1.18855e-05	0.0015167245075435297
1.18858e-05	0.0015160629425526504
1.18860e-05	0.0015154013775617711
1.18862e-05	0.0015161586963983373
1.18865e-05	0.0015181201005455937
1.18868e-05	0.0015200815046928502
1.18870e-05	0.001525249143706355
1.18873e-05	0.0015331376399388488
1.18875e-05	0.001541026136171396
1.18878e-05	0.0015517852139016344
1.18880e-05	0.001564980308554019
1.18883e-05	0.001578175403206493
1.18885e-05	0.001594999647572947
1.18888e-05	0.0016149036408068503
1.18890e-05	0.0016348076340408886
1.18893e-05	0.0016582912581460617
1.18895e-05	0.0016848126087134214
1.18898e-05	0.001711333959280961
1.18900e-05	0.0017425826725224823
1.18903e-05	0.0017778430940122737
1.18905e-05	0.0018131035155023044
1.18908e-05	0.001848363936992335
1.18910e-05	0.0018836243584821268
1.18913e-05	0.0019188847799721574
1.18915e-05	0.001954145201462188
1.18918e-05	0.0019934120430935578
1.18920e-05	0.0020360787907274577
1.18923e-05	0.0020787455383613576
1.18925e-05	0.0021214122859949686
1.18928e-05	0.0021640790336288685
1.18930e-05	0.0022067457812627684
1.18933e-05	0.002249412528896379
1.18935e-05	0.0022911138255280027
1.18938e-05	0.002331995826493734
1.18940e-05	0.0023728778274591886
1.18943e-05	0.00241375982842492
1.18945e-05	0.0024546418293906517
1.18947e-05	0.002495523830356106
1.18950e-05	0.0025364058313218376
1.18953e-05	0.0025702832115976288
1.18955e-05	0.002598216369578071
1.18958e-05	0.0026261495275583233
1.18960e-05	0.0026540826855387654
1.18963e-05	0.0026820158435192074
1.18965e-05	0.0027099490014994604
1.18968e-05	0.0027378821594799025
1.18970e-05	0.002752122781267644
1.18973e-05	0.0027547437190605087
1.18975e-05	0.0027573646568533907
