Time(s)	Current(A)
1.47500e-05	-0.0030614627439499937
1.47503e-05	-0.0030674154252317305
1.47505e-05	-0.003073368106513427
1.47508e-05	-0.003079320787795164
1.47510e-05	-0.003085273469076901
1.47513e-05	-0.0030912261503585974
1.47515e-05	-0.0030971788316403346
1.47518e-05	-0.0031031315129220714
1.47520e-05	-0.003109084194203768
1.47523e-05	-0.0031150368754855047
1.47525e-05	-0.003120989556767242
1.47528e-05	-0.003124354925654125
1.47530e-05	-0.003126849872308484
1.47533e-05	-0.0031293448189628425
1.47535e-05	-0.003131839765617184
1.47538e-05	-0.003134334712271543
1.47540e-05	-0.0031368296589259015
1.47543e-05	-0.0031393246055802433
1.47545e-05	-0.003138698306129305
1.47548e-05	-0.0031370219587565145
1.47550e-05	-0.003135345611383735
1.47553e-05	-0.0031336692640109446
1.47555e-05	-0.003131992916638154
1.47558e-05	-0.003130316569265375
1.47560e-05	-0.0031286402218925844
1.47563e-05	-0.0031235590152784054
1.47565e-05	-0.003117332347764998
1.47568e-05	-0.0031111056802515477
1.47570e-05	-0.0031048790127380975
1.47573e-05	-0.003098652345224648
1.47575e-05	-0.0030924256777112398
1.47578e-05	-0.00308619901019779
1.47580e-05	-0.00307997234268434
1.47583e-05	-0.0030737456751709323
1.47585e-05	-0.003067519007657482
1.47588e-05	-0.003060710431375209
1.47590e-05	-0.003052139891033674
1.47593e-05	-0.003043569350692081
1.47595e-05	-0.0030349988103504882
1.47598e-05	-0.003026428270008953
1.47600e-05	-0.00301785772966736
1.47603e-05	-0.003009287189325767
1.47605e-05	-0.0030007166489842323
1.47608e-05	-0.0029921461086426394
1.47610e-05	-0.0029835755683010464
1.47613e-05	-0.0029750050279595116
1.47615e-05	-0.0029677035124631946
1.47618e-05	-0.0029608289216171433
1.47620e-05	-0.0029539543307711383
1.47623e-05	-0.002947079739925087
1.47625e-05	-0.002940205149079036
1.47628e-05	-0.002933330558233031
1.47630e-05	-0.0029264559673869797
1.47633e-05	-0.002922549607941679
1.47635e-05	-0.0029196418192946262
1.47638e-05	-0.0029167340306475533
1.47640e-05	-0.002913826242000481
1.47643e-05	-0.002910918453353428
1.47645e-05	-0.002908010664706355
1.47648e-05	-0.0029051028760592825
1.47650e-05	-0.0029060235207018226
1.47653e-05	-0.002908232124795685
1.47655e-05	-0.0029104407288895466
1.47658e-05	-0.0029126493329834084
1.47660e-05	-0.0029148579370772555
1.47663e-05	-0.0029170665411711173
1.47665e-05	-0.0029192751452649796
1.47668e-05	-0.0029214837493588266
1.47670e-05	-0.0029247647001209936
1.47673e-05	-0.0029312926139648883
1.47675e-05	-0.0029378205278087384
1.47678e-05	-0.002944348441652633
1.47680e-05	-0.002950876355496528
1.47683e-05	-0.002957404269340378
1.47685e-05	-0.0029639321831842727
1.47688e-05	-0.0029704600970281675
1.47690e-05	-0.0029769880108720176
1.47693e-05	-0.002984700820461566
1.47695e-05	-0.0029928122520353944
1.47698e-05	-0.0030009236836091675
1.47700e-05	-0.003009147777278232
1.47703e-05	-0.0030174097726682896
1.47705e-05	-0.003025671768058291
1.47708e-05	-0.0030337001347838476
1.47710e-05	-0.0030416499042807653
1.47713e-05	-0.0030495996737776292
1.47715e-05	-0.00305695274068252
1.47718e-05	-0.0030641050652249232
1.47720e-05	-0.0030712573897672783
1.47723e-05	-0.0030765731645300033
1.47725e-05	-0.003081271088211574
1.47728e-05	-0.003085969011893112
1.47730e-05	-0.0030906669355746826
1.47733e-05	-0.0030953648592562527
1.47735e-05	-0.003100062782937791
1.47738e-05	-0.0031047607066193614
1.47740e-05	-0.0031063089614908257
1.47743e-05	-0.003106797606488815
1.47745e-05	-0.003107286251486801
1.47748e-05	-0.0031077748964847903
1.47750e-05	-0.0031082635414827796
1.47753e-05	-0.0031087521864807655
1.47755e-05	-0.003109240831478755
1.47758e-05	-0.003106165704778768
1.47760e-05	-0.0031018916559363073
1.47763e-05	-0.0030976176070938175
1.47765e-05	-0.0030933435582513277
1.47768e-05	-0.003089069509408867
1.47770e-05	-0.003084795460566377
1.47773e-05	-0.0030805214117238877
1.47775e-05	-0.0030762473628814266
1.47778e-05	-0.003071973314038937
1.47780e-05	-0.0030676992651964474
1.47783e-05	-0.0030610359669097165
1.47785e-05	-0.0030535688786201523
1.47788e-05	-0.0030461017903305886
1.47790e-05	-0.003038634702041075
1.47793e-05	-0.0030311676137515114
1.47795e-05	-0.003023700525461947
1.47798e-05	-0.0030162334371724338
1.47800e-05	-0.00300876634888287
1.47803e-05	-0.003001299260593306
1.47805e-05	-0.002993832172303793
1.47808e-05	-0.0029862289429060684
1.47810e-05	-0.0029785799129905368
1.47813e-05	-0.002970930883075057
1.47815e-05	-0.0029637694361242216
1.47818e-05	-0.002956772021570063
1.47820e-05	-0.0029497746070159515
1.47823e-05	-0.002943273312193493
1.47825e-05	-0.002937247290632988
1.47828e-05	-0.002931547663202188
1.47830e-05	-0.0029255201444857914
1.47833e-05	-0.0029171550670092448
1.47835e-05	-0.0029080491769512638
1.47838e-05	-0.0028956809352478595
1.47840e-05	-0.002882215174972138
1.47843e-05	-0.0028653490519842846
1.47845e-05	-0.0028473389808160634
1.47848e-05	-0.0028293289096477203
1.47850e-05	-0.002806534996852611
1.47853e-05	-0.002782131706650556
1.47855e-05	-0.002757728416448336
1.47858e-05	-0.0027275206473392427
1.47860e-05	-0.0026953601385826245
1.47863e-05	-0.002663199629825788
1.47865e-05	-0.002626190693697701
1.47868e-05	-0.002587550652261495
1.47870e-05	-0.002548910610825027
1.47873e-05	-0.002508598172110307
1.47875e-05	-0.002463221874491953
1.47878e-05	-0.0024178455768732914
1.47880e-05	-0.0023724692792546297
1.47883e-05	-0.002324161597710154
1.47885e-05	-0.002274867741573653
1.47888e-05	-0.0022244138433325203
1.47890e-05	-0.002173569684355595
1.47893e-05	-0.002121958784325169
1.47895e-05	-0.0020696806955279724
1.47898e-05	-0.002017082695863723
1.47900e-05	-0.001964477397306336
1.47903e-05	-0.0019121803439892263
1.47905e-05	-0.0018605071085447612
1.47908e-05	-0.0018097544771783433
1.47910e-05	-0.0017601298033047537
1.47913e-05	-0.0017117649209473095
1.47915e-05	-0.0016648593759341465
1.47918e-05	-0.0016197145715819636
1.47920e-05	-0.0015766622786543604
1.47923e-05	-0.0015360359692442294
1.47925e-05	-0.0014981693181623241
1.47928e-05	-0.001463309849367853
1.47930e-05	-0.0014312752819200482
1.47933e-05	-0.0014014625187870379
1.47935e-05	-0.0013734856744338528
1.47938e-05	-0.0013473731959402933
1.47940e-05	-0.00132328270938847
1.47943e-05	-0.001302276743533599
1.47945e-05	-0.0012821336914363257
1.47948e-05	-0.0012655914999288146
1.47950e-05	-0.0012502607079897647
1.47953e-05	-0.001238263015426523
1.47955e-05	-0.0012273866423490908
1.47958e-05	-0.0012165102692716584
1.47960e-05	-0.0012093441958142344
1.47963e-05	-0.0012034263393444708
1.47965e-05	-0.001197508482874707
1.47968e-05	-0.001195348197646327
1.47970e-05	-0.001194452032498901
1.47973e-05	-0.0011935558673514754
1.47975e-05	-0.0011952701816744986
1.47978e-05	-0.001197862712086489
1.47980e-05	-0.0012004552424984792
1.47983e-05	-0.0012053858598254526
1.47985e-05	-0.0012111030550854805
1.47988e-05	-0.0012168202503455086
1.47990e-05	-0.001224149210445879
1.47993e-05	-0.0012320203996005635
1.47995e-05	-0.0012405724830339918
1.47998e-05	-0.0012493536325517366
1.48000e-05	-0.0012586290434571988
1.48003e-05	-0.0012680707335109896
1.48005e-05	-0.0012778639554347792
1.48008e-05	-0.0012877754395197356
1.48010e-05	-0.0012977103997140302
1.48013e-05	-0.001307653257728286
1.48015e-05	-0.001317070242183818
1.48018e-05	-0.0013263103125417367
1.48020e-05	-0.0013352417882602934
1.48023e-05	-0.0013432388689439475
1.48025e-05	-0.0013512359496276555
1.48028e-05	-0.001358427708298016
1.48030e-05	-0.0013653485409729196
1.48033e-05	-0.0013730341111739778
1.48035e-05	-0.0013809769539592468
1.48038e-05	-0.0013904172879570086
1.48040e-05	-0.001400361407137251
1.48043e-05	-0.001410305526317493
1.48045e-05	-0.0014215479599983415
1.48048e-05	-0.0014332271719401997
1.48050e-05	-0.0014449063838820578
1.48053e-05	-0.0014591577396932595
1.48055e-05	-0.0014742744147516393
1.48058e-05	-0.001489391089810019
1.48060e-05	-0.0015045077648682965
1.48063e-05	-0.0015222468607078883
1.48065e-05	-0.0015408681899260375
1.48068e-05	-0.0015594895191440605
1.48070e-05	-0.0015781108483622097
1.48073e-05	-0.0015988187202346511
1.48075e-05	-0.0016202285456563758
1.48078e-05	-0.0016416383710782456
1.48080e-05	-0.0016643257062607401
1.48083e-05	-0.0016874428205848628
1.48085e-05	-0.0017110901291168663
1.48088e-05	-0.0017349158052972886
1.48090e-05	-0.0017590893547332431
1.48093e-05	-0.0017833799355012167
1.48095e-05	-0.0018079594161446429
1.48098e-05	-0.00183263608832762
1.48100e-05	-0.0018572778294535961
1.48103e-05	-0.0018817318571603403
1.48105e-05	-0.0019058364377709442
1.48108e-05	-0.0019294498102263062
1.48110e-05	-0.0019524849523373676
1.48113e-05	-0.0019749019807052608
1.48115e-05	-0.0019966217888224944
1.48118e-05	-0.002017505128361117
1.48120e-05	-0.002037394962310296
1.48123e-05	-0.002056132850223396
1.48125e-05	-0.002073560408652082
1.48128e-05	-0.002088862591468105
1.48130e-05	-0.0021035641003849196
1.48133e-05	-0.002115427134272185
1.48135e-05	-0.0021263352499273688
1.48138e-05	-0.0021334434589462374
1.48140e-05	-0.0021392733054327
1.48143e-05	-0.0021451031519191623
1.48145e-05	-0.002146274014256905
1.48148e-05	-0.0021458775036707605
1.48150e-05	-0.0021454809930846162
1.48153e-05	-0.0021384146700085547
1.48155e-05	-0.002129104492227178
1.48158e-05	-0.0021197943144458014
1.48160e-05	-0.002110484136664488
1.48163e-05	-0.0021011739588831114
1.48165e-05	-0.0020893982126894708
1.48168e-05	-0.002070156961299382
1.48170e-05	-0.0020509157099094237
1.48173e-05	-0.002031674458519335
1.48175e-05	-0.0020124332071292466
1.48178e-05	-0.001993191955739288
1.48180e-05	-0.00196958061347661
1.48183e-05	-0.001944499087609426
1.48185e-05	-0.0019194175617424118
1.48188e-05	-0.001892606658195838
1.48190e-05	-0.0018652139583469774
1.48193e-05	-0.0018368834336657692
1.48195e-05	-0.00180823740646212
1.48198e-05	-0.0017791212037491266
1.48200e-05	-0.0017498468248461148
1.48203e-05	-0.0017205350758097862
1.48205e-05	-0.0016913542246851348
1.48208e-05	-0.0016624900251455917
1.48210e-05	-0.001634104625719556
1.48213e-05	-0.0016063607408827096
1.48215e-05	-0.0015794341002383827
1.48218e-05	-0.001553512231126761
1.48220e-05	-0.0015296278012500858
1.48223e-05	-0.0015063396611768249
1.48225e-05	-0.0014840198606297518
1.48228e-05	-0.0014646320994988228
1.48230e-05	-0.001445244338368025
1.48233e-05	-0.0014274565183644138
1.48235e-05	-0.0014102069496884587
1.48238e-05	-0.0013929573810126205
1.48240e-05	-0.0013775454820994413
1.48243e-05	-0.0013627518110527473
1.48245e-05	-0.0013479581400061534
1.48248e-05	-0.0013331644689594593
1.48250e-05	-0.0013189430937148449
1.48253e-05	-0.0013064545753906816
1.48255e-05	-0.0012939660570666029
1.48258e-05	-0.0012814775387424398
1.48260e-05	-0.0012689890204182765
1.48263e-05	-0.0012576931716831781
1.48265e-05	-0.0012467985602053263
1.48268e-05	-0.0012359039487274744
1.48270e-05	-0.0012250093372496965
1.48273e-05	-0.0012141147257718446
1.48275e-05	-0.0012040765088223938
1.48278e-05	-0.001194326399656553
1.48280e-05	-0.001184576290490646
1.48283e-05	-0.0011748261813247392
1.48285e-05	-0.0011650760721588983
1.48288e-05	-0.0011563148904940952
1.48290e-05	-0.0011478864032837756
1.48293e-05	-0.001139457916073513
1.48295e-05	-0.0011310294288631934
1.48298e-05	-0.0011226009416528738
1.48300e-05	-0.0011141724544426114
1.48303e-05	-0.0011061204073555286
1.48305e-05	-0.001099208184936881
1.48308e-05	-0.0010922959625182804
1.48310e-05	-0.001085383740099633
1.48313e-05	-0.0010784715176809852
1.48315e-05	-0.0010715592952623846
1.48318e-05	-0.001064647072843737
1.48320e-05	-0.0010584852617281616
1.48323e-05	-0.0010528295675108026
1.48325e-05	-0.001047546586229246
1.48328e-05	-0.0010427561108792814
1.48330e-05	-0.0010389300018689926
1.48333e-05	-0.0010368243227115838
1.48335e-05	-0.0010368997333281543
1.48338e-05	-0.001039197964109362
1.48340e-05	-0.001043636704846945
1.48343e-05	-0.0010501256758621534
1.48345e-05	-0.0010585748001947913
1.48348e-05	-0.0010697473735070998
1.48350e-05	-0.0010816720859601373
1.48353e-05	-0.001097299011332486
1.48355e-05	-0.0011141714331707147
1.48358e-05	-0.0011347600926169864
1.48360e-05	-0.0011565989667074493
1.48363e-05	-0.0011816379524413406
1.48365e-05	-0.0012077535180020987
1.48368e-05	-0.0012359713931025809
1.48370e-05	-0.0012662909807973693
1.48373e-05	-0.0012985693560492219
1.48375e-05	-0.0013327947334563373
1.48378e-05	-0.001368790957790607
1.48380e-05	-0.0014063331649250925
1.48383e-05	-0.001445193500769289
1.48385e-05	-0.001485143966318374
1.48388e-05	-0.0015259751454690502
1.48390e-05	-0.0015675642087822005
1.48393e-05	-0.0016098580302826963
1.48395e-05	-0.0016527309951311503
1.48398e-05	-0.0016959543146718328
1.48400e-05	-0.0017392689191064118
1.48403e-05	-0.001782413747479527
1.48405e-05	-0.0018251278544437614
1.48408e-05	-0.0018671618517651133
1.48410e-05	-0.0019083204819239081
1.48413e-05	-0.0019484524007057093
1.48415e-05	-0.001987360469370527
1.48418e-05	-0.0020247833540624907
1.48420e-05	-0.002060440764056785
1.48423e-05	-0.0020940508586657623
1.48425e-05	-0.00212533202841922
1.48428e-05	-0.0021540020841904753
1.48430e-05	-0.0021797942821846815
1.48433e-05	-0.0022025086531552436
1.48435e-05	-0.0022208192903224342
1.48438e-05	-0.0022379129012722486
1.48440e-05	-0.0022488068158501157
1.48443e-05	-0.0022576150319302047
1.48445e-05	-0.002266423248010294
1.48448e-05	-0.002267547734981019
1.48450e-05	-0.0022660872659635866
1.48453e-05	-0.0022646267969461537
1.48455e-05	-0.002255642532535887
1.48458e-05	-0.002244127116951813
1.48460e-05	-0.0022326117013677397
1.48463e-05	-0.002214227556593695
1.48465e-05	-0.0021935326376631647
1.48468e-05	-0.002172837718732634
1.48470e-05	-0.0021460307649936116
1.48473e-05	-0.0021171676038122013
1.48475e-05	-0.002088304442630791
1.48478e-05	-0.00205445708713068
1.48480e-05	-0.002018932951675191
1.48483e-05	-0.001983408816219702
1.48485e-05	-0.0019447062159232702
1.48488e-05	-0.0019049343182049598
1.48490e-05	-0.001863699323154033
1.48493e-05	-0.0018212125156470006
1.48495e-05	-0.0017778935843647309
1.48498e-05	-0.001733994086688056
1.48500e-05	-0.0016897680986539157
1.48503e-05	-0.0016454698420191247
1.48505e-05	-0.0016013536549567193
1.48508e-05	-0.0015576737307251563
1.48510e-05	-0.001514686468828826
1.48513e-05	-0.001472658525688602
1.48515e-05	-0.001431870814973932
1.48518e-05	-0.0013926121534205808
1.48520e-05	-0.0013551728515351906
1.48523e-05	-0.0013198435104602743
1.48525e-05	-0.001286914470815183
1.48528e-05	-0.0012567074026588996
1.48530e-05	-0.001229670846993109
1.48533e-05	-0.0012063044016529278
1.48535e-05	-0.0011868993925734375
1.48538e-05	-0.0011715270317541274
1.48540e-05	-0.0011601978793797667
1.48543e-05	-0.001152918833259745
1.48545e-05	-0.0011496969361178267
1.48548e-05	-0.0011505585405693498
1.48550e-05	-0.0011572419562735831
1.48553e-05	-0.0011655374210686941
1.48555e-05	-0.0011802595905495638
1.48558e-05	-0.0011971438285431296
1.48560e-05	-0.0012185736771913205
1.48563e-05	-0.0012443929231015065
1.48565e-05	-0.0012739068466231325
1.48568e-05	-0.0013069569782756783
1.48570e-05	-0.0013434346840225234
1.48573e-05	-0.001383251332014339
1.48575e-05	-0.0014262366536668205
1.48578e-05	-0.0014721337687458335
1.48580e-05	-0.0015206623287230344
1.48583e-05	-0.0015715404636050248
1.48585e-05	-0.0016244862154819778
1.48588e-05	-0.0016792254663332055
1.48590e-05	-0.0017355152205544915
1.48593e-05	-0.0017931251142709315
1.48595e-05	-0.0018517735433776997
1.48598e-05	-0.0019111249085739304
1.48600e-05	-0.0019708284862519888
1.48603e-05	-0.002030532934163701
1.48605e-05	-0.002089887114393794
1.48608e-05	-0.0021485442738246015
1.48610e-05	-0.002206177591903081
1.48613e-05	-0.002262467854591585
1.48615e-05	-0.0023170642603073614
1.48618e-05	-0.0023695817033962717
1.48620e-05	-0.0024196257719746716
1.48623e-05	-0.002466801933710027
1.48625e-05	-0.002510715599271962
1.48628e-05	-0.002551020031147148
1.48630e-05	-0.0025876232908578897
1.48633e-05	-0.0026207196645982606
1.48635e-05	-0.0026491560488842284
1.48638e-05	-0.002676316092712418
1.48640e-05	-0.002696700992385718
1.48643e-05	-0.002714806601728174
1.48645e-05	-0.00273291221107063
1.48648e-05	-0.0027424710648123393
1.48650e-05	-0.002749154623658883
1.48653e-05	-0.0027558381825054266
1.48655e-05	-0.002754866816573342
1.48658e-05	-0.002751320184988769
1.48660e-05	-0.002747773553404196
1.48663e-05	-0.0027370368733666264
1.48665e-05	-0.0027238813211184366
1.48668e-05	-0.0027107257688702468
1.48670e-05	-0.0026920839791017433
1.48673e-05	-0.0026715965122747084
1.48675e-05	-0.0026475259552730013
1.48678e-05	-0.0026222499770134303
1.48680e-05	-0.00259386861909172
1.48683e-05	-0.0025644425510241695
1.48685e-05	-0.0025323542311899753
1.48688e-05	-0.0024993702780569736
1.48690e-05	-0.0024643449922917555
1.48693e-05	-0.0024286329625068377
1.48695e-05	-0.0023916952968882506
1.48698e-05	-0.002354345303525228
1.48700e-05	-0.002316428921804558
1.48703e-05	-0.002278321996019275
1.48705e-05	-0.0022402861518855074
1.48708e-05	-0.0022022742210025766
1.48710e-05	-0.002164764042955952
1.48713e-05	-0.002128058914798011
1.48715e-05	-0.0020924190713033624
1.48718e-05	-0.0020581077831631103
1.48720e-05	-0.0020260891328628752
1.48723e-05	-0.0019947238183643315
1.48725e-05	-0.0019665576137450876
1.48728e-05	-0.001939467651940638
1.48730e-05	-0.0019157177002257432
1.48733e-05	-0.0018930913928985964
1.48735e-05	-0.0018741475826226858
1.48738e-05	-0.001856442636012851
1.48740e-05	-0.0018387376894031362
1.48743e-05	-0.0018258971029701506
1.48745e-05	-0.0018146929819566682
1.48748e-05	-0.0018034888609432618
1.48750e-05	-0.0017985237460795278
1.48753e-05	-0.0017956575542900123
1.48755e-05	-0.0017927913625005161
1.48758e-05	-0.0017899251707110004
1.48760e-05	-0.0017870589789214847
1.48763e-05	-0.0017909389237002655
1.48765e-05	-0.0017970884000943395
1.48768e-05	-0.0018032378764884134
1.48770e-05	-0.0018093873528824873
1.48773e-05	-0.0018155368292765196
1.48775e-05	-0.0018255707437201283
1.48778e-05	-0.001836911458711221
1.48780e-05	-0.001850004693568831
1.48783e-05	-0.0018636875102120989
1.48785e-05	-0.0018789174852096465
1.48788e-05	-0.0018946679543837758
1.48790e-05	-0.0019113836444433472
1.48793e-05	-0.0019288843421302422
1.48795e-05	-0.0019468839738144832
1.48798e-05	-0.0019652613885250032
1.48800e-05	-0.0019839100589837473
1.48803e-05	-0.0020027239902498076
1.48805e-05	-0.002021597359989403
1.48808e-05	-0.002040418016960003
1.48810e-05	-0.0020590416755210746
1.48813e-05	-0.002077289403973534
1.48815e-05	-0.0020949933448703092
1.48818e-05	-0.0021120142724815453
1.48820e-05	-0.002128221449981576
1.48823e-05	-0.0021434844922098364
1.48825e-05	-0.0021576737108847245
1.48828e-05	-0.002170623240244009
1.48830e-05	-0.0021820077491693534
1.48833e-05	-0.0021905311934771014
1.48835e-05	-0.0021982326490925888
1.48838e-05	-0.002201660000992755
1.48840e-05	-0.002203649461232554
1.48843e-05	-0.0022056389214723665
1.48845e-05	-0.0022025820490227015
1.48848e-05	-0.002197827492058871
1.48850e-05	-0.0021930729350950083
1.48853e-05	-0.0021810711275328997
1.48855e-05	-0.0021666312038441304
1.48858e-05	-0.002152191280155459
1.48860e-05	-0.0021377513564666897
1.48863e-05	-0.0021233114327779204
1.48865e-05	-0.002100942525054509
1.48868e-05	-0.002075906152810151
1.48870e-05	-0.002050869780565793
1.48873e-05	-0.0020258334083216047
1.48875e-05	-0.0020007970360772466
1.48878e-05	-0.0019706126565063402
1.48880e-05	-0.0019386963870949134
1.48883e-05	-0.0019067801176832699
1.48885e-05	-0.0018726552792129314
1.48888e-05	-0.0018377874351344777
1.48890e-05	-0.0018016808451870282
1.48893e-05	-0.0017651575170242984
1.48895e-05	-0.0017279522057102792
1.48898e-05	-0.0016902673695637846
1.48900e-05	-0.0016524136395565684
1.48903e-05	-0.0016146122332993161
1.48905e-05	-0.001577084369208439
1.48908e-05	-0.0015400455742542868
1.48910e-05	-0.0015036869962068795
1.48913e-05	-0.001468182814162567
1.48915e-05	-0.001433734356463203
1.48918e-05	-0.0014005764080833533
1.48920e-05	-0.0013689533207505964
1.48923e-05	-0.0013398902753841827
1.48925e-05	-0.0013115532726525152
1.48928e-05	-0.0012864078012407615
1.48930e-05	-0.001262336023069997
1.48933e-05	-0.00124047849061764
1.48935e-05	-0.0012193658735123944
1.48938e-05	-0.0012001580878765556
