Time(s)	Current(A)
7.75000e-06	0.0003783158032084437
7.75025e-06	0.00045147086453661367
7.75050e-06	0.0005189783112410233
7.75075e-06	0.0005808668347818783
7.75100e-06	0.0006382041942593008
7.75125e-06	0.0006920877466939772
7.75150e-06	0.0007426708884374261
7.75175e-06	0.0007896287888423723
7.75200e-06	0.00083263681062931
7.75225e-06	0.0008713702461443786
7.75250e-06	0.0009053265856522987
7.75275e-06	0.000933550520002834
7.75300e-06	0.0009610636307995368
7.75325e-06	0.0009829968013006795
7.75350e-06	0.0010042720121921493
7.75375e-06	0.0010203822629183822
7.75400e-06	0.0010357759054766664
7.75425e-06	0.0010455441987158426
7.75450e-06	0.0010544806562839115
7.75475e-06	0.001056887232621836
7.75500e-06	0.0010592938089597605
7.75525e-06	0.0010610128438032877
7.75550e-06	0.0010573347017101575
7.75575e-06	0.001053656559617027
7.75600e-06	0.001049334539619298
7.75625e-06	0.00103995810035337
7.75650e-06	0.001030581661087442
7.75675e-06	0.0010207408785305938
7.75700e-06	0.0010072550172093033
7.75725e-06	0.000993769155888013
7.75750e-06	0.000980049149772571
7.75775e-06	0.000964491115125315
7.75800e-06	0.0009489330804780589
7.75825e-06	0.0009332404146021849
7.75850e-06	0.0009164908982398606
7.75875e-06	0.0008997447691162472
7.75900e-06	0.0008830252296994066
7.75925e-06	0.0008664703769516109
7.75950e-06	0.0008512083088575461
7.75975e-06	0.0008359462407635847
7.76000e-06	0.0008208722422477083
7.76025e-06	0.0008073905322108559
7.76050e-06	0.0007948730278886462
7.76075e-06	0.0007826203985026898
7.76100e-06	0.0007687505411181217
7.76125e-06	0.0007515745795005078
7.76150e-06	0.0007305772130313117
7.76175e-06	0.0007052093248749871
7.76200e-06	0.000679351773544437
7.76225e-06	0.0006493686702149066
7.76250e-06	0.0006168789200153901
7.76275e-06	0.0005816684091482443
7.76300e-06	0.0005427823668984684
7.76325e-06	0.0004993868692747034
7.76350e-06	0.0004514926789739478
7.76375e-06	0.0003995098689677117
7.76400e-06	0.00034384852209214735
7.76425e-06	0.0002849187838316153
7.76450e-06	0.0002231012276794934
7.76475e-06	0.00015848587968980327
7.76500e-06	9.069870882687459e-05
7.76525e-06	1.9441607639827495e-05
7.76550e-06	-5.505456007905911e-05
7.76575e-06	-0.00013230877666070464
7.76600e-06	-0.00021184000532122242
7.76625e-06	-0.00029322673802507075
7.76650e-06	-0.0003762947017397821
7.76675e-06	-0.0004596494949642496
7.76700e-06	-0.0005452558899207589
7.76725e-06	-0.0006308622848772681
7.76750e-06	-0.0007165269622628577
7.76775e-06	-0.0008026491547052749
7.76800e-06	-0.0008887713471476921
7.76825e-06	-0.0009744475378128943
7.76850e-06	-0.001056622629963662
7.76875e-06	-0.0011387977221144297
7.76900e-06	-0.0012203466596212935
7.76925e-06	-0.0012969803048428845
7.76950e-06	-0.0013728814975125464
7.76975e-06	-0.001443032962991831
7.77000e-06	-0.0015122021818626678
7.77025e-06	-0.0015736607988458132
7.77050e-06	-0.0016341037309266357
7.77075e-06	-0.0016865735716652024
7.77100e-06	-0.0017384381490214646
7.77125e-06	-0.001785551429764825
7.77150e-06	-0.0018326647105078664
7.77175e-06	-0.0018789931822932341
7.77200e-06	-0.0019191609309108634
7.77225e-06	-0.0019593286795282203
7.77250e-06	-0.0019986311936443855
7.77275e-06	-0.0020311416468586333
7.77300e-06	-0.002063652100072661
7.77325e-06	-0.002095648953626261
7.77350e-06	-0.0021236140676125447
7.77375e-06	-0.0021515791815986387
7.77400e-06	-0.0021795442955849223
7.77425e-06	-0.0022068139601359765
7.77450e-06	-0.002228624370680105
7.77475e-06	-0.002250434781224381
7.77500e-06	-0.0022722451917686574
7.77525e-06	-0.002293280921232123
7.77550e-06	-0.0023082354310125816
7.77575e-06	-0.0023231899407930405
7.77600e-06	-0.002338144450573398
7.77625e-06	-0.002353098960353857
7.77650e-06	-0.0023680534701343153
7.77675e-06	-0.002383007979914673
7.77700e-06	-0.0023979624896951317
7.77725e-06	-0.0024129169994755906
7.77750e-06	-0.002427871509255948
7.77775e-06	-0.002442826019036407
7.77800e-06	-0.0024577805288168654
7.77825e-06	-0.0024683911041972527
7.77850e-06	-0.002476259200753552
7.77875e-06	-0.002484127297309904
7.77900e-06	-0.0024919953938662568
7.77925e-06	-0.002499863490422556
7.77950e-06	-0.0025077315869789086
7.77975e-06	-0.0025155996835352613
7.78000e-06	-0.0025234677800915605
7.78025e-06	-0.002531335876647913
7.78050e-06	-0.0025392039732042653
7.78075e-06	-0.0025470720697605646
7.78100e-06	-0.0025547947191166
7.78125e-06	-0.0025613756129813426
7.78150e-06	-0.0025679565068460405
7.78175e-06	-0.0025745374007107836
7.78200e-06	-0.002579975195258482
7.78225e-06	-0.002584925673964781
7.78250e-06	-0.002589876152671114
7.78275e-06	-0.0025989957564258653
7.78300e-06	-0.0026062105226667843
7.78325e-06	-0.04000717346527508
7.78350e-06	-0.030678468958847915
7.78375e-06	-0.021257533939557087
7.78400e-06	-0.01447520470964383
7.78425e-06	0.006143153928697669
7.78450e-06	0.012768747115971753
7.78475e-06	0.009177088509735913
7.78500e-06	-0.00044895252176987456
7.78525e-06	-0.013960062299728163
7.78550e-06	-0.017259298084254904
7.78575e-06	-0.012455937965771484
7.78600e-06	-0.004635619289817665
7.78625e-06	0.005205428723100888
7.78650e-06	0.00829042625587158
7.78675e-06	0.005771167228873592
7.78700e-06	-0.0004167391481164802
7.78725e-06	-0.008993042498085156
7.78750e-06	-0.011142299048816827
7.78775e-06	-0.00819602447172708
7.78800e-06	-0.0033466366593762308
7.78825e-06	0.00277739555321844
7.78850e-06	0.0046756026137930685
7.78875e-06	0.0030679381791840913
7.78900e-06	-0.0008341145797039836
7.78925e-06	-0.006229257894565465
7.78950e-06	-0.007596166471667454
7.78975e-06	-0.005769585122429262
7.79000e-06	-0.0027496706562189096
7.79025e-06	0.0010696661068971118
7.79050e-06	0.002242936533828473
7.79075e-06	0.0012214715512360386
7.79100e-06	-0.001235286058927522
7.79125e-06	-0.0046249925944153135
7.79150e-06	-0.005489158537197007
7.79175e-06	-0.004350979182792118
7.79200e-06	-0.0024635883736057523
7.79225e-06	-7.389728454454316e-05
7.79250e-06	0.0006597906242058941
7.79275e-06	2.0222051870665177e-05
7.79300e-06	-0.0015168889100659988
7.79325e-06	-0.0036369093197400606
7.79350e-06	-0.004173594026850402
7.79375e-06	-0.0034549029077086757
7.79400e-06	-0.002265976971629789
7.79425e-06	-0.0007616171629042856
7.79450e-06	-0.0002938491678157378
7.79475e-06	-0.0006855739330800432
7.79500e-06	-0.0016388392447126178
7.79525e-06	-0.0029566165293625607
7.79550e-06	-0.003282099973596175
7.79575e-06	-0.0028209032585800264
7.79600e-06	-0.002064985160158862
7.79625e-06	-0.001111434109219152
7.79650e-06	-0.000807234145773464
7.79675e-06	-0.001041494042004256
7.79700e-06	-0.0016276338267777698
7.79725e-06	-0.0024423057745029645
7.79750e-06	-0.002635723910792234
7.79775e-06	-0.0023368318248878465
7.79800e-06	-0.0018539199135946833
7.79825e-06	-0.0012479144278980687
7.79850e-06	-0.0010494486044770024
7.79875e-06	-0.0011891226463898587
7.79900e-06	-0.001550133552504978
7.79925e-06	-0.0020552955861766397
7.79950e-06	-0.002172410940616593
7.79975e-06	-0.001982377428971489
7.80000e-06	-0.0016784220216301533
7.80025e-06	-0.0012988131094518523
7.80050e-06	-0.0011760000724330125
7.80075e-06	-0.0012658674999760629
7.80100e-06	-0.0014935894654020303
7.80125e-06	-0.0018094377698452573
7.80150e-06	-0.0018797092095202942
7.80175e-06	-0.001755192920567879
7.80200e-06	-0.0015570766431637474
7.80225e-06	-0.0013094755199893767
7.80250e-06	-0.001220768426303199
7.80275e-06	-0.001263446391993491
7.80300e-06	-0.0013907666599192973
7.80325e-06	-0.0015717110753111628
7.80350e-06	-0.0015973906842509157
7.80375e-06	-0.0014997701582101593
7.80400e-06	-0.001354906855569039
7.80425e-06	-0.0011780475321348108
7.80450e-06	-0.0010998548449473787
7.80475e-06	-0.0011032263738993096
7.80500e-06	-0.0011590137535579315
7.80525e-06	-0.0012479205071835677
7.80550e-06	-0.0012392389550977938
7.80575e-06	-0.0011531370173386106
7.80600e-06	-0.0010373985875835087
7.80625e-06	-0.0009017136180923976
7.80650e-06	-0.0008280640735555808
7.80675e-06	-0.0008058686820707857
7.80700e-06	-0.0008170018609809577
7.80725e-06	-0.0008495105496928961
7.80750e-06	-0.0008216582886353928
7.80775e-06	-0.0007462196931403641
7.80800e-06	-0.0006532662633487065
7.80825e-06	-0.0005490056675674119
7.80850e-06	-0.00048492641653929513
7.80875e-06	-0.00045453361859785547
7.80900e-06	-0.0004466072683521003
7.80925e-06	-0.0004537947798518364
7.80950e-06	-0.0004250338290035315
7.80975e-06	-0.00036846570122865544
7.81000e-06	-0.0003030651344130582
7.81025e-06	-0.00023285747647609181
7.81050e-06	-0.00019020584375334485
7.81075e-06	-0.00017048362199172963
7.81100e-06	-0.00016510011396477645
7.81125e-06	-0.00016811423225532784
7.81150e-06	-0.0001471676970674451
7.81175e-06	-0.00010740273256330583
7.81200e-06	-6.078831834350542e-05
7.81225e-06	-9.928456619338908e-06
7.81250e-06	2.4823172431276705e-05
7.81275e-06	4.628406471552207e-05
7.81300e-06	5.975442758910402e-05
7.81325e-06	6.887439482704259e-05
7.81350e-06	9.383070398903215e-05
7.81375e-06	0.00013131910790877813
7.81400e-06	0.00017375957647511236
7.81425e-06	0.0002194387700648429
7.81450e-06	0.0002555256124456387
7.81475e-06	0.0002837040001619172
7.81500e-06	0.0003072127484200227
7.81525e-06	0.00032825057990030777
7.81550e-06	0.0003593803499820608
7.81575e-06	0.00039844968523401183
7.81600e-06	0.00044062827969977385
7.81625e-06	0.00048476096104634704
7.81650e-06	0.0005227288227902014
7.81675e-06	0.0005555054434155007
7.81700e-06	0.0005850384853988208
7.81725e-06	0.0006126236680068849
7.81750e-06	0.0006460485962899928
7.81775e-06	0.000683882895289977
7.81800e-06	0.0007232092212616784
7.81825e-06	0.0007626798070232702
7.81850e-06	0.0007976135338479449
7.81875e-06	0.0008284336600706075
7.81900e-06	0.0008562505534873635
7.81925e-06	0.0008817946056041247
7.81950e-06	0.0009098623613077383
7.81975e-06	0.0009394760963328346
7.82000e-06	0.0009686075862117136
7.82025e-06	0.0009966709536430429
7.82050e-06	0.0010203284156716501
7.82075e-06	0.0010392867031281592
7.82100e-06	0.0010529148451529082
7.82125e-06	0.0010606631325094642
7.82150e-06	0.0010654030656557195
7.82175e-06	0.0010667458270280717
7.82200e-06	0.0010636794761484888
7.82225e-06	0.0010560957999271882
7.82250e-06	0.001042162800530965
7.82275e-06	0.0010219558038900378
7.82300e-06	0.0009953385098714377
7.82325e-06	0.0009622254635295404
7.82350e-06	0.0009246743560309983
7.82375e-06	0.0008827004402195291
7.82400e-06	0.0008359287817976813
7.82425e-06	0.000784550478309061
7.82450e-06	0.0007276768288743411
7.82475e-06	0.0006656140655644058
7.82500e-06	0.0005985357872126255
7.82525e-06	0.0005266474791565205
7.82550e-06	0.0004514970228520842
7.82575e-06	0.00037335284219917463
7.82600e-06	0.00029223888031975503
7.82625e-06	0.00020853374549642474
7.82650e-06	0.00012193966050144646
7.82675e-06	3.290728622552275e-05
7.82700e-06	-5.8195713821232545e-05
7.82725e-06	-0.00015098179275275134
7.82750e-06	-0.00024413545566023
7.82775e-06	-0.0003373123680983439
7.82800e-06	-0.0004304892805370892
7.82825e-06	-0.000522440350568643
7.82850e-06	-0.000614209282747569
7.82875e-06	-0.0007035450824307731
7.82900e-06	-0.0007925193629464588
7.82925e-06	-0.0008770350057947334
7.82950e-06	-0.000960888176302684
7.82975e-06	-0.0010378577737905192
7.83000e-06	-0.0011138045977171617
7.83025e-06	-0.0011812453717615688
7.83050e-06	-0.00124742230173836
7.83075e-06	-0.0013053883043209929
7.83100e-06	-0.0013621343126608777
7.83125e-06	-0.0014138498344200199
7.83150e-06	-0.0014648179175073747
7.83175e-06	-0.0015088270020332676
7.83200e-06	-0.0015518021061367534
7.83225e-06	-0.001594777210240239
7.83250e-06	-0.0016284729964141102
7.83275e-06	-0.0016607900449736963
7.83300e-06	-0.0016931070935332826
7.83325e-06	-0.0017191477573434697
7.83350e-06	-0.0017442558647091375
7.83375e-06	-0.0017693639720748053
7.83400e-06	-0.0017882125197389725
7.83425e-06	-0.0018061310108541454
7.83450e-06	-0.001824049501969318
7.83475e-06	-0.001832849915196695
7.83500e-06	-0.0018402955481424538
7.83525e-06	-0.0018477411810882125
7.83550e-06	-0.001855186814033921
7.83575e-06	-0.0018626324469796797
7.83600e-06	-0.0018700780799254385
7.83625e-06	-0.001877523712871147
7.83650e-06	-0.0018849693458169057
7.83675e-06	-0.0018844625844452445
7.83700e-06	-0.0018827742421366276
7.83725e-06	-0.001881085899827999
7.83750e-06	-0.0018793975575193706
7.83775e-06	-0.0018777092152107422
7.83800e-06	-0.0018760208729021253
7.83825e-06	-0.0018743325305934967
7.83850e-06	-0.0018726441882848683
7.83875e-06	-0.001868480352223221
7.83900e-06	-0.0018639487028827444
7.83925e-06	-0.0018594170535422682
7.83950e-06	-0.0018550404289768901
7.83975e-06	-0.0018509270432569777
7.84000e-06	-0.0018468136575370653
7.84025e-06	-0.0018427002718171808
7.84050e-06	-0.0018389770766206051
7.84075e-06	-0.001835311856628206
7.84100e-06	-0.001829208018261931
7.84125e-06	-0.0018227418456263757
7.84150e-06	-0.001811149810687276
7.84175e-06	-0.0017987961659810508
7.84200e-06	-0.001786442521274742
7.84225e-06	-0.001768873179320953
7.84250e-06	-0.0017505288797637689
7.84275e-06	-0.0017321845802064607
7.84300e-06	-0.0017072871272425813
7.84325e-06	-0.0016814159950527278
7.84350e-06	-0.001655544862862699
7.84375e-06	-0.001622696876614635
7.84400e-06	-0.0015888122569417715
7.84425e-06	-0.0015549276372686782
7.84450e-06	-0.00151562447378801
7.84475e-06	-0.0014755162134001062
7.84500e-06	-0.0014354079530119305
7.84525e-06	-0.0013897548596020174
7.84550e-06	-0.001343277905008078
7.84575e-06	-0.0012968009504138235
7.84600e-06	-0.0012468566676708548
7.84625e-06	-0.0011963972031245617
7.84650e-06	-0.0011443158951909196
7.84675e-06	-0.0010919936108724129
7.84700e-06	-0.0010383951061360634
7.84725e-06	-0.0009846069782931373
7.84750e-06	-0.0009301208643554651
7.84775e-06	-0.0008755310423984134
7.84800e-06	-0.0008213659515429417
7.84825e-06	-0.0007672639679920057
7.84850e-06	-0.0007146967886130896
7.84875e-06	-0.000662357653177103
7.84900e-06	-0.0006122673475481897
7.84925e-06	-0.0005625111770648836
7.84950e-06	-0.0005158634088237675
7.84975e-06	-0.0004696774925340803
7.85000e-06	-0.0004265713201593481
7.85025e-06	-0.00038638114970730025
7.85050e-06	-0.00034932407563227603
7.85075e-06	-0.00031581956695568445
7.85100e-06	-0.00028633213931487906
7.85125e-06	-0.0002611689361656432
7.85150e-06	-0.00024043386385174612
7.85175e-06	-0.00022416490880111512
7.85200e-06	-0.0002123941655163257
7.85225e-06	-0.0002051528594472141
7.85250e-06	-0.00020247571150316753
7.85275e-06	-0.00020443813050524543
7.85300e-06	-0.0002111436876638621
7.85325e-06	-0.00022259736441721954
7.85350e-06	-0.00023867690411386757
7.85375e-06	-0.0002592186633776916
7.85400e-06	-0.00028405537496511664
7.85425e-06	-0.00031301924704536316
7.85450e-06	-0.0003459446385498254
7.85475e-06	-0.00038269135059856954
7.85500e-06	-0.000423137003773945
7.85525e-06	-0.00046709728047564735
7.85550e-06	-0.0005143083123972299
7.85575e-06	-0.0005656255357796241
7.85600e-06	-0.0006174910645829428
7.85625e-06	-0.0006734293952051146
7.85650e-06	-0.0007299728699888524
7.85675e-06	-0.0007901803621222555
7.85700e-06	-0.0008509322604916969
7.85725e-06	-0.0009116841588607267
7.85750e-06	-0.000974614884027359
7.85775e-06	-0.0010378693431675604
7.85800e-06	-0.001101123802307333
7.85825e-06	-0.0011636882655616492
7.85850e-06	-0.0012261502079959602
7.85875e-06	-0.0012886121504298478
7.85900e-06	-0.0013475213387452013
7.85925e-06	-0.0014059026525137272
7.85950e-06	-0.0014642839662818575
7.85975e-06	-0.0015159879659004429
7.86000e-06	-0.0015666998382670102
7.86025e-06	-0.0016174117106332341
7.86050e-06	-0.0016601547775052928
7.86075e-06	-0.0017017138250366294
7.86100e-06	-0.0017356593357280778
7.86125e-06	-0.0017684736135297405
7.86150e-06	-0.001793306179876598
7.86175e-06	-0.0018169528092918902
7.86200e-06	-0.0018323419383667646
7.86225e-06	-0.0018465041533053637
7.86250e-06	-0.0018521472688166885
7.86275e-06	-0.0018565246013327178
7.86300e-06	-0.0018523924125360615
7.86325e-06	-0.001846995863877434
7.86350e-06	-0.0018315662148791444
7.86375e-06	-0.0018146458299281704
7.86400e-06	-0.0017977254449771964
7.86425e-06	-0.0017696982986546731
7.86450e-06	-0.0017400208899072981
7.86475e-06	-0.0017103434811599231
7.86500e-06	-0.0016723687392782487
7.86525e-06	-0.0016331611648324944
7.86550e-06	-0.001588318466321126
7.86575e-06	-0.0015426384910204082
7.86600e-06	-0.0014922498841954427
7.86625e-06	-0.0014411616604959624
7.86650e-06	-0.0013862966696671609
7.86675e-06	-0.0013308705200381044
7.86700e-06	-0.0012732443433760643
7.86725e-06	-0.001214214074290006
7.86750e-06	-0.0011542514211377087
7.86775e-06	-0.0010937054462948153
7.86800e-06	-0.001032925249192672
7.86825e-06	-0.0009722598073470484
7.86850e-06	-0.0009120581770412412
7.86875e-06	-0.0008526764231621136
7.86900e-06	-0.0007944902991591273
7.86925e-06	-0.0007378945463651491
7.86950e-06	-0.0006832902685236346
7.86975e-06	-0.0006310784978896822
7.87000e-06	-0.0005816600674763363
7.87025e-06	-0.0005354358459148122
7.87050e-06	-0.0004928023003918073
7.87075e-06	-0.0004540217321933755
7.87100e-06	-0.000419104424739485
7.87125e-06	-0.00038798807923481595
7.87150e-06	-0.00036071318884479817
7.87175e-06	-0.000337379816780167
7.87200e-06	-0.00031809445772159386
7.87225e-06	-0.00030296352656765515
7.87250e-06	-0.00029209071565736237
7.87275e-06	-0.0002854956453469034
7.87300e-06	-0.00028304010951676694
7.87325e-06	-0.0002845403537476275
7.87350e-06	-0.00028987710080670285
7.87375e-06	-0.00029896839623399493
7.87400e-06	-0.0003117362530586515
7.87425e-06	-0.0003281026730148193
7.87450e-06	-0.0003479879347900453
7.87475e-06	-0.00037125971083414055
7.87500e-06	-0.00039768672584630674
7.87525e-06	-0.0004270093097936277
7.87550e-06	-0.00045900807979074834
7.87575e-06	-0.0004944717031811498
7.87600e-06	-0.0005303992322786845
7.87625e-06	-0.0005699277903746472
7.87650e-06	-0.0006099913957853539
7.87675e-06	-0.0006533798147702674
7.87700e-06	-0.0006972622404895186
7.87725e-06	-0.0007411446662084725
7.87750e-06	-0.0007870273468568934
7.87775e-06	-0.0008332072289523991
7.87800e-06	-0.000879387111047592
7.87825e-06	-0.0009254549781913604
7.87850e-06	-0.0009715062019536938
7.87875e-06	-0.0010175574257157152
7.87900e-06	-0.0010611727677090096
7.87925e-06	-0.0011044261820418763
7.87950e-06	-0.0011476795963744498
7.87975e-06	-0.0011870381134984828
7.88000e-06	-0.001225817919844184
7.88025e-06	-0.0012602145478500127
7.88050e-06	-0.0012939599153954184
7.88075e-06	-0.001321831060757176
7.88100e-06	-0.0013488294037033478
7.88125e-06	-0.001368260326658668
7.88150e-06	-0.0013865668688465972
7.88175e-06	-0.0013970114006739125
7.88200e-06	-0.0014062877809706777
7.88225e-06	-0.001407714212236281
7.88250e-06	-0.0014079742840652433
7.88275e-06	-0.0014001421160391631
7.88300e-06	-0.0013911075885734315
7.88325e-06	-0.0013736122412146064
7.88350e-06	-0.0013548597701364827
7.88375e-06	-0.0013281538658475188
7.88400e-06	-0.001300266226257911
7.88425e-06	-0.0012651247105654926
7.88450e-06	-0.0012289054010157139
7.88475e-06	-0.0011859722385837207
7.88500e-06	-0.0011420415199087626
7.88525e-06	-0.0010918579647964878
7.88550e-06	-0.0010407453520870848
7.88575e-06	-0.000984389557842291
7.88600e-06	-0.0009272547223271197
7.88625e-06	-0.0008668940893201953
7.88650e-06	-0.0008042789163115884
7.88675e-06	-0.0007398676785766924
7.88700e-06	-0.0006739015672848015
7.88725e-06	-0.0006066682963526808
7.88750e-06	-0.0005385363546549893
7.88775e-06	-0.0004699046431703022
7.88800e-06	-0.0004011750200602256
7.88825e-06	-0.00033274924965906254
7.88850e-06	-0.0002650280423468798
7.88875e-06	-0.00019838817355933842
7.88900e-06	-0.0001331790414385355
7.88925e-06	-6.977922024416783e-05
7.88950e-06	-8.617809581086932e-06
7.88975e-06	4.98570313828702e-05
7.89000e-06	0.00010519538164358578
7.89025e-06	0.0001569473595128724
7.89050e-06	0.0002046722505797264
7.89075e-06	0.00024819283415358485
7.89100e-06	0.0002877765268327402
7.89125e-06	0.0003237143957764228
7.89150e-06	0.0003560046465237408
7.89175e-06	0.0003845047430075505
7.89200e-06	0.00040905760808981103
7.89225e-06	0.000429506219075756
7.89250e-06	0.00044569928739747374
7.89275e-06	0.00045765064762158883
7.89300e-06	0.00046565259026765647
7.89325e-06	0.00047001224638247455
7.89350e-06	0.000470853209105862
7.89375e-06	0.0004682109613385211
7.89400e-06	0.0004621119218286608
