Time(s)	Current(A)
4.75000e-06	0.0012845508037733105
4.75025e-06	0.0012979282713428064
4.75050e-06	0.0013113057389123478
4.75075e-06	0.0013246832064818437
4.75100e-06	0.0013380606740513396
4.75125e-06	0.0013468967069432515
4.75150e-06	0.0013510247609937142
4.75175e-06	0.0013551528150441907
4.75200e-06	0.0013592808690946533
4.75225e-06	0.0013634089231451159
4.75250e-06	0.0013675369771955924
4.75275e-06	0.001371665031246055
4.75300e-06	0.0013715142308356307
4.75325e-06	0.0013669276611811703
4.75350e-06	0.0013623410915267254
4.75375e-06	0.001355084159729822
4.75400e-06	0.0013450589378753396
4.75425e-06	0.0013350337160208912
4.75450e-06	0.0013212564496012413
4.75475e-06	0.0013035895430836503
4.75500e-06	0.0012859226365661192
4.75525e-06	0.0012682557300485878
4.75550e-06	0.0012505888235309968
4.75575e-06	0.0012329219170134657
4.75600e-06	0.0012152550104958747
4.75625e-06	0.001194031953454778
4.75650e-06	0.001169122334212825
4.75675e-06	0.0011442127149707876
4.75700e-06	0.0011193030957288347
4.75725e-06	0.0010943934764868818
4.75750e-06	0.0010694838572448445
4.75775e-06	0.0010445742380028916
4.75800e-06	0.0010188895244816845
4.75825e-06	0.0009924012923092547
4.75850e-06	0.0009659130601369145
4.75875e-06	0.0009394248279645744
4.75900e-06	0.0009129365957921445
4.75925e-06	0.0008864483636198044
4.75950e-06	0.0008634198481311944
4.75975e-06	0.0008404227632953958
4.76000e-06	0.0008174256784596753
4.76025e-06	0.0007944285936238766
4.76050e-06	0.000771431508788156
4.76075e-06	0.0007511320581425396
4.76100e-06	0.0007336291697262364
4.76125e-06	0.0007161262813099924
4.76150e-06	0.0006986233928937485
4.76175e-06	0.0006811205044774452
4.76200e-06	0.0006642839644183858
4.76225e-06	0.0006474534779659655
4.76250e-06	0.0006306229915134882
4.76275e-06	0.0006137925050610679
4.76300e-06	0.0005967092480359194
4.76325e-06	0.0005793639507982353
4.76350e-06	0.00056201865356061
4.76375e-06	0.0005446733563229846
4.76400e-06	0.0005273280590853005
4.76425e-06	0.0005099827618476752
4.76450e-06	0.0004926374646099911
4.76475e-06	0.00047529216737236574
4.76500e-06	0.00045691834782123785
4.76525e-06	0.000437478287834508
4.76550e-06	0.000418038227847844
4.76575e-06	0.00039859816786118004
4.76600e-06	0.0003791581078744502
4.76625e-06	0.0003597180478877862
4.76650e-06	0.00034027798790112223
4.76675e-06	0.0003208379279143924
4.76700e-06	0.00030118949625618425
4.76725e-06	0.0002813250514897578
4.76750e-06	0.00026146060672326406
4.76775e-06	0.0002415961619568376
4.76800e-06	0.00022199871136858705
4.76825e-06	0.00020267804620832756
4.76850e-06	0.00018335738104813352
4.76875e-06	0.000164036715887874
4.76900e-06	0.00014540227469062839
4.76925e-06	0.00012747922276269122
4.76950e-06	0.00010994118168044979
4.76975e-06	9.309158025346922e-05
4.77000e-06	7.689053577213876e-05
4.77025e-06	6.145886577461164e-05
4.77050e-06	4.6917369412787386e-05
4.77075e-06	3.3386818913844195e-05
4.77100e-06	2.1182837298368583e-05
4.77125e-06	1.1198988726325875e-05
4.77150e-06	4.672032017436664e-06
4.77175e-06	2.3492175479547943e-06
4.77200e-06	4.306562554382952e-06
4.77225e-06	1.0398457186584846e-05
4.77250e-06	2.047925893076373e-05
4.77275e-06	3.440331144825349e-05
4.77300e-06	5.214701390139606e-05
4.77325e-06	7.404876424235924e-05
4.77350e-06	0.0001006618774174795
4.77375e-06	0.00013223300186979576
4.77400e-06	0.0001685883076512357
4.77425e-06	0.00020941514660119604
4.77450e-06	0.0002544008853730699
4.77475e-06	0.0003032328906197848
4.77500e-06	0.0003556749799311886
4.77525e-06	0.0004117177543261965
4.77550e-06	0.0004714864485411731
4.77575e-06	0.0005349141128480403
4.77600e-06	0.0006023330785663442
4.77625e-06	0.0006720251982895301
4.77650e-06	0.0007439581878449465
4.77675e-06	0.0008182142247414566
4.77700e-06	0.0008946328299921319
4.77725e-06	0.0009732933096227421
4.77750e-06	0.0010519537892530856
4.77775e-06	0.0011306142688834292
4.77800e-06	0.0012099670153162569
4.77825e-06	0.0012900374154611617
4.77850e-06	0.0013701078156060666
4.77875e-06	0.0014501782157512427
4.77900e-06	0.0015280802577526966
4.77925e-06	0.001603734423261543
4.77950e-06	0.001679388588770646
4.77975e-06	0.0017512269522861788
4.78000e-06	0.0018191095801558244
4.78025e-06	0.0018869922080257003
4.78050e-06	0.0019488987828921
4.78075e-06	0.0020046101500596322
4.78100e-06	0.0020603215172273538
4.78125e-06	0.0021109076326669297
4.78150e-06	0.0021561805423926353
4.78175e-06	0.0022014534521184945
4.78200e-06	0.0022430954710878108
4.78225e-06	0.0022809734467405546
4.78250e-06	0.0023188514223931697
4.78275e-06	0.0023491546360844043
4.78300e-06	0.0023716053050287333
4.78325e-06	0.002394055973972986
4.78350e-06	0.002416506642917239
4.78375e-06	0.002438957311861568
4.78400e-06	0.0024614079808058208
4.78425e-06	0.0024838586497500734
4.78450e-06	0.0025063093186944024
4.78475e-06	0.0025287599876386555
4.78500e-06	0.0025436923682851
4.78525e-06	0.00255083074885898
4.78550e-06	0.0025579691294328353
4.78575e-06	0.002565107510006691
4.78600e-06	0.0025722458905805706
4.78625e-06	0.0025793842711544263
4.78650e-06	0.002586522651728306
4.78675e-06	0.002593661032302161
4.78700e-06	0.002600799412876017
4.78725e-06	0.0026039530213906657
4.78750e-06	0.0026029757276989644
4.78775e-06	0.002601998434007263
4.78800e-06	0.0026010211403155585
4.78825e-06	0.002600043846623857
4.78850e-06	0.0025990665529321555
4.78875e-06	0.0025980892592404508
4.78900e-06	0.0025971119655487495
4.78925e-06	0.0025961346718570482
4.78950e-06	0.0025939661344393473
4.78975e-06	0.002590562667830558
4.79000e-06	0.0025871592012217687
4.79025e-06	0.002583755734612968
4.79050e-06	0.002580352268004179
4.79075e-06	0.002576948801395378
4.79100e-06	0.0025735453347865886
4.79125e-06	0.0025701418681777994
4.79150e-06	0.002566738401568999
4.79175e-06	0.0025547412412677962
4.79200e-06	0.002533835238075729
4.79225e-06	0.002512929234883591
4.79250e-06	0.002492023231691524
4.79275e-06	0.002471117228499457
4.79300e-06	0.0024502112253073187
4.79325e-06	0.0024293052221152516
4.79350e-06	0.0024083992189231846
4.79375e-06	0.0023874932157310464
4.79400e-06	0.0023665872125389793
4.79425e-06	0.0023330536295444165
4.79450e-06	0.0022864293862848288
4.79475e-06	0.002239805143025399
4.79500e-06	0.0021931808997658108
4.79525e-06	0.002146556656506381
4.79550e-06	0.002099932413246951
4.79575e-06	0.002053308169987363
4.79600e-06	0.002006683926727933
4.79625e-06	0.0019600596834685033
4.79650e-06	0.0019134354402089153
4.79675e-06	0.0018607876956058089
4.79700e-06	0.0018018955549328251
4.79725e-06	0.0017430034142596421
4.79750e-06	0.0016841112735866584
4.79775e-06	0.0016252191329136749
4.79800e-06	0.0015663269922404916
4.79825e-06	0.0015077040977288958
4.79850e-06	0.0014490836492506703
4.79875e-06	0.0013904632007722463
4.79900e-06	0.0013318427522940207
4.79925e-06	0.0012732223038155964
4.79950e-06	0.0012175336359480649
4.79975e-06	0.0011648842633803318
4.80000e-06	0.0011122348908124203
4.80025e-06	0.0010626696585784414
4.80050e-06	0.0010163016687254169
4.80075e-06	0.0009731491623912265
4.80100e-06	0.0009333300582599153
4.80125e-06	0.0008954354456933685
4.80150e-06	0.0008595358999286964
4.80175e-06	0.0008243394979580144
4.80200e-06	0.000789872025573641
4.80225e-06	0.000755404553189151
4.80250e-06	0.0007226841252208447
4.80275e-06	0.000691774809537897
4.80300e-06	0.0006608654938548447
4.80325e-06	0.0006309572233999797
4.80350e-06	0.0006020867086506431
4.80375e-06	0.0005732161939014041
4.80400e-06	0.0005445767336499253
4.80425e-06	0.0005161768011605643
4.80450e-06	0.00048777686867129954
4.80475e-06	0.0004593769361820348
4.80500e-06	0.00043165563436308287
4.80525e-06	0.000404637850058166
4.80550e-06	0.00037762006575324915
4.80575e-06	0.00035060228144824073
4.80600e-06	0.00032366846660583236
4.80625e-06	0.0002968217005663823
4.80650e-06	0.0002699749345268413
4.80675e-06	0.00024312816848739128
4.80700e-06	0.00021761929160399283
4.80725e-06	0.00019212256910551765
4.80750e-06	0.00016662584660712885
4.80775e-06	0.00014135151365660673
4.80800e-06	0.00011645072473222695
4.80825e-06	9.192014736965661e-05
4.80850e-06	6.792060768069281e-05
4.80875e-06	4.4612902870061e-05
4.80900e-06	2.2116865652371385e-05
4.80925e-06	4.251985011802335e-07
4.80950e-06	-2.056187863309391e-05
4.80975e-06	-4.0868026084601366e-05
4.81000e-06	-6.039104105754364e-05
4.81025e-06	-7.898529223688288e-05
4.81050e-06	-9.650518017284868e-05
4.81075e-06	-0.00011280513809196018
4.81100e-06	-0.00012776868338375518
4.81125e-06	-0.00014137664177817902
4.81150e-06	-0.00015370057120181913
4.81175e-06	-0.00016479075375834345
4.81200e-06	-0.0001746266263519836
4.81225e-06	-0.00018316058888189914
4.81250e-06	-0.00019034506425431727
4.81275e-06	-0.00019613249602422716
4.81300e-06	-0.00020049357036923404
4.81325e-06	-0.00020345990846414114
4.81350e-06	-0.00020511996900820178
4.81375e-06	-0.000205548877372556
4.81400e-06	-0.00020477737591538528
4.81425e-06	-0.0002028192812871595
4.81450e-06	-0.0001996884180693795
4.81475e-06	-0.00019539862460938171
4.81500e-06	-0.00018997516507335976
4.81525e-06	-0.00018348147545207605
4.81550e-06	-0.00017601658988980882
4.81575e-06	-0.00016767117912950774
4.81600e-06	-0.00015850812042875136
4.81625e-06	-0.00014841112066941807
4.81650e-06	-0.00013776333877766976
4.81675e-06	-0.00012649629715532924
4.81700e-06	-0.00011458728621878278
4.81725e-06	-0.00010222228831573884
4.81750e-06	-8.938458142531598e-05
4.81775e-06	-7.62818434308236e-05
4.81800e-06	-6.290435507287733e-05
4.81825e-06	-4.941812537976793e-05
4.81850e-06	-3.5819166573276653e-05
4.81875e-06	-2.222020776683145e-05
4.81900e-06	-8.688585358487463e-06
4.81925e-06	4.660085034541015e-06
4.81950e-06	1.7722794731530802e-05
4.81975e-06	3.039313765905198e-05
4.82000e-06	4.2575625748627195e-05
4.82025e-06	5.417894566661047e-05
4.82050e-06	6.511178956923743e-05
4.82075e-06	7.528286218175434e-05
4.82100e-06	8.460055424486807e-05
4.82125e-06	9.346005127423238e-05
4.82150e-06	0.0001023259394589594
4.82175e-06	0.00011119845317646548
4.82200e-06	0.00012012691438341341
4.82225e-06	0.00012911337479426584
4.82250e-06	0.00013809983520511826
4.82275e-06	0.00014708629561600113
4.82300e-06	0.00015598766032687563
4.82325e-06	0.00016488825196481915
4.82350e-06	0.00017378884360279282
4.82375e-06	0.00018325768413021088
4.82400e-06	0.0001933156124535575
4.82425e-06	0.00020337354077693814
4.82450e-06	0.00021343146910028472
4.82475e-06	0.0002234893974236654
4.82500e-06	0.00023354732574701198
4.82525e-06	0.0002436052540703586
4.82550e-06	0.0002541771684703232
4.82575e-06	0.0002652819179194528
4.82600e-06	0.0002763866673685824
4.82625e-06	0.00028749141681774966
4.82650e-06	0.0002985961662668793
4.82675e-06	0.0003097009157160089
4.82700e-06	0.00032080566516517616
4.82725e-06	0.000331945649411744
4.82750e-06	0.0003431221605913969
4.82775e-06	0.0003542986717710876
4.82800e-06	0.00036547518295074053
4.82825e-06	0.0003766516941303934
4.82850e-06	0.00038782820531008415
4.82875e-06	0.000399004716489737
4.82900e-06	0.00040868218125553364
4.82925e-06	0.0004183460275634718
4.82950e-06	0.00042800987387140994
4.82975e-06	0.00043767372017938083
4.83000e-06	0.000447337566487319
4.83025e-06	0.00045700141279525713
4.83050e-06	0.0004649342945401154
4.83075e-06	0.00047107273353623794
4.83100e-06	0.00047721117253236053
4.83125e-06	0.00048334961152850383
4.83150e-06	0.0004894880505246264
4.83175e-06	0.0004956264895207489
4.83200e-06	0.0005017649285168923
4.83225e-06	0.0005079033675130148
4.83250e-06	0.0005140418065091374
4.83275e-06	0.0005201802455052807
4.83300e-06	0.0005235156916879565
4.83325e-06	0.0005268256733893736
4.83350e-06	0.0005301356550907797
4.83375e-06	0.0005334456367921857
4.83400e-06	0.0005367556184936029
4.83425e-06	0.000540065600195009
4.83450e-06	0.000543375581896415
4.83475e-06	0.0005466855635978322
4.83500e-06	0.0005499955452992382
4.83525e-06	0.0005524338081451339
4.83550e-06	0.0005539683843342507
4.83575e-06	0.0005555029605233623
4.83600e-06	0.0005570375367124739
4.83625e-06	0.0005585721129015907
4.83650e-06	0.0005601066890907021
4.83675e-06	0.0005616412652798137
4.83700e-06	0.0005631758414689305
4.83725e-06	0.0005647104176580421
4.83750e-06	0.0005662449938471589
4.83775e-06	0.0005677795700362705
4.83800e-06	0.0005688490880985668
4.83825e-06	0.0005694364933544799
4.83850e-06	0.0005700238986103909
4.83875e-06	0.000570611303866302
4.83900e-06	0.0005711987091222149
4.83925e-06	0.0005717861143781259
4.83950e-06	0.000572373519634037
4.83975e-06	0.00057296092488995
4.84000e-06	0.0005735483301458611
4.84025e-06	0.0005741357354017721
4.84050e-06	0.0005747231406576851
4.84075e-06	0.0005749123376461715
4.84100e-06	0.0005746887232154956
4.84125e-06	0.0005744651087848189
4.84150e-06	0.0005724235387167311
4.84175e-06	0.0005684973446766132
4.84200e-06	0.0005626859134116496
4.84225e-06	0.0005549201092270489
4.84250e-06	0.0005454839163840103
4.84275e-06	0.0005343160781458306
4.84300e-06	0.0005214493429093598
4.84325e-06	0.0005068214084757904
4.84350e-06	0.0004899330341978116
4.84375e-06	0.0004707013248954085
4.84400e-06	0.0004492993949985066
4.84425e-06	0.000425647657860809
4.84450e-06	0.0004005899308409309
4.84475e-06	0.00037325558508950974
4.84500e-06	0.00034429063411716446
4.84525e-06	0.0003136710767749199
4.84550e-06	0.00028127579847726087
4.84575e-06	0.0002471025006745778
4.84600e-06	0.000211319407002737
4.84625e-06	0.00017415173004700326
4.84650e-06	0.0001358246683644053
4.84675e-06	9.656339114610504e-05
4.84700e-06	5.656105795756872e-05
4.84725e-06	1.591467520260688e-05
4.84750e-06	-2.5339613073062866e-05
4.84775e-06	-6.712400747623188e-05
4.84800e-06	-0.0001091481148157134
4.84825e-06	-0.0001511722221553373
4.84850e-06	-0.00019286416334020115
4.84875e-06	-0.00023421174971539668
4.84900e-06	-0.0002747737169785839
4.84925e-06	-0.00031452125479080196
4.84950e-06	-0.00035317721612840926
4.84975e-06	-0.00039070157053982553
4.85000e-06	-0.0004266682335469611
4.85025e-06	-0.00046102008126368467
4.85050e-06	-0.0004932832536697005
4.85075e-06	-0.0005233811545595144
4.85100e-06	-0.0005513048908439159
4.85125e-06	-0.0005769747312412291
4.85150e-06	-0.0006015098968415614
4.85175e-06	-0.0006248687766853673
4.85200e-06	-0.0006468771614527877
4.85225e-06	-0.0006674855255915399
4.85250e-06	-0.000688093889730362
4.85275e-06	-0.0007066143287779502
4.85300e-06	-0.0007229702740410082
4.85325e-06	-0.0007393262193041216
4.85350e-06	-0.000754439372427042
4.85375e-06	-0.0007682641575552778
4.85400e-06	-0.0007820889426835605
4.85425e-06	-0.0007939343944882417
4.85450e-06	-0.0008037279265692255
4.85475e-06	-0.0008135214586501761
4.85500e-06	-0.0008233149907311266
4.85525e-06	-0.0008331085228121104
4.85550e-06	-0.0008429020548930609
4.85575e-06	-0.0008526955869740115
4.85600e-06	-0.0008624891190549953
4.85625e-06	-0.0008681993122919917
4.85650e-06	-0.0008738724094281104
4.85675e-06	-0.0008795455065642484
4.85700e-06	-0.000885218603700367
4.85725e-06	-0.0008908917008364858
4.85750e-06	-0.0008965647979726237
4.85775e-06	-0.0009022378951087425
4.85800e-06	-0.0009071927802330012
4.85825e-06	-0.0009109498280787485
4.85850e-06	-0.0009142369660304503
4.85875e-06	-0.0009175241039821633
4.85900e-06	-0.0009208112419338652
4.85925e-06	-0.0009240983798855672
4.85950e-06	-0.0009269028966503565
4.85975e-06	-0.0009292070934737447
4.86000e-06	-0.0009315112902971331
4.86025e-06	-0.0009338154871205292
4.86050e-06	-0.0009361196839439176
4.86075e-06	-0.0009380125804447212
4.86100e-06	-0.0009394790933576105
4.86125e-06	-0.0009382482886205725
4.86150e-06	-0.0009342212498079351
4.86175e-06	-0.000926586012588814
4.86200e-06	-0.0009128643988955426
4.86225e-06	-0.00089449519454757
4.86250e-06	-0.0008717434486528225
4.86275e-06	-0.0008448741521118049
4.86300e-06	-0.0008139537509799303
4.86325e-06	-0.0007784523532955961
4.86350e-06	-0.0007374635248033495
4.86375e-06	-0.0006905445766868379
4.86400e-06	-0.0006379168538147845
4.86425e-06	-0.0005800234297576668
4.86450e-06	-0.0005173074415339629
4.86475e-06	-0.00045021192194120665
4.86500e-06	-0.00037905556792673537
4.86525e-06	-0.00030378347970209805
4.86550e-06	-0.0002241049179559672
4.86575e-06	-0.00014001967094155567
4.86600e-06	-5.1943490362713224e-05
4.86625e-06	3.9569021772535306e-05
4.86650e-06	0.00013396328281088833
4.86675e-06	0.00023068478175264928
4.86700e-06	0.00032964130317451586
4.86725e-06	0.00042983572151205143
4.86750e-06	0.0005313438384469582
4.86775e-06	0.0006342138301257028
4.86800e-06	0.0007370838218047958
4.86825e-06	0.0008399538134835403
4.86850e-06	0.0009428238051622849
4.86875e-06	0.001045693796841378
4.86900e-06	0.001145558023493326
4.86925e-06	0.0012423062572661403
4.86950e-06	0.0013390544910392823
4.86975e-06	0.0014319826072672454
4.87000e-06	0.001520950514044061
4.87025e-06	0.0016054171897362602
4.87050e-06	0.0016852175645421874
4.87075e-06	0.001759312813216173
4.87100e-06	0.0018274937165431242
4.87125e-06	0.0018903853582528513
4.87150e-06	0.0019477937697745104
4.87175e-06	0.0020007772010890096
4.87200e-06	0.002049173378678903
4.87225e-06	0.0020926846986713547
4.87250e-06	0.0021311320228579182
4.87275e-06	0.0021629288681665306
4.87300e-06	0.002187831347268829
4.87325e-06	0.0022127338263710434
4.87350e-06	0.002230985140680316
4.87375e-06	0.0022423413777143573
4.87400e-06	0.00225369761474836
4.87425e-06	0.002258915294091364
4.87450e-06	0.002257769301663296
4.87475e-06	0.0022566233092352317
4.87500e-06	0.0022496618631614564
4.87525e-06	0.002236671698280461
4.87550e-06	0.0022236815333995102
4.87575e-06	0.0022045388829433727
4.87600e-06	0.002179018122066936
4.87625e-06	0.002153497361190499
4.87650e-06	0.0021279766003139754
4.87675e-06	0.002102455839437538
4.87700e-06	0.0020769350785611014
4.87725e-06	0.002046462354741313
4.87750e-06	0.002010856068873721
4.87775e-06	0.0019752497830061292
4.87800e-06	0.001939643497138417
4.87825e-06	0.0019040372112708254
4.87850e-06	0.0018684309254032338
4.87875e-06	0.0018343877389847838
4.87900e-06	0.0018019649742258106
4.87925e-06	0.0017695422094668371
4.87950e-06	0.001737119444707754
4.87975e-06	0.0017046966799487808
4.88000e-06	0.0016722739151896974
4.88025e-06	0.0016398511504307242
4.88050e-06	0.0016074283856717508
4.88075e-06	0.0015750056209126676
4.88100e-06	0.0015425828561536942
4.88125e-06	0.001510160091394721
4.88150e-06	0.0014938941020151287
4.88175e-06	0.0014777748928525899
4.88200e-06	0.0014616556836900513
4.88225e-06	0.0014455364745274578
4.88250e-06	0.0014294172653649192
4.88275e-06	0.0014132980562023803
4.88300e-06	0.001397178847039787
4.88325e-06	0.0013810596378772484
4.88350e-06	0.0013649404287147096
4.88375e-06	0.0013488212195521163
4.88400e-06	0.0013384615465438013
4.88425e-06	0.0013340726242357323
4.88450e-06	0.001329683701927678
4.88475e-06	0.0013252947796196237
4.88500e-06	0.0013209058573115547
4.88525e-06	0.0013165169350035004
4.88550e-06	0.0013121280126954461
4.88575e-06	0.001307739090387377
4.88600e-06	0.0013033501680793228
4.88625e-06	0.001302101084941538
4.88650e-06	0.0013041069856118016
4.88675e-06	0.0013061128862820585
4.88700e-06	0.0013081187869523154
4.88725e-06	0.001310124687622579
4.88750e-06	0.001312130588292836
4.88775e-06	0.0013141364889630927
4.88800e-06	0.0013161423896333564
4.88825e-06	0.0013181482903036133
4.88850e-06	0.0013204384235625392
4.88875e-06	0.0013230232128288494
4.88900e-06	0.0013256080020951596
4.88925e-06	0.0013281927913614787
4.88950e-06	0.001330777580627789
4.88975e-06	0.0013333623698940993
4.89000e-06	0.0013359471591604184
4.89025e-06	0.0013385319484267287
4.89050e-06	0.0013411167376930389
4.89075e-06	0.001343701526959358
4.89100e-06	0.0013462863162256684
4.89125e-06	0.0013488711054919786
4.89150e-06	0.0013514558947582977
4.89175e-06	0.001354040684024608
4.89200e-06	0.0013566254732909184
4.89225e-06	0.0013592102625572373
4.89250e-06	0.0013617950518235477
4.89275e-06	0.0013643798410898668
4.89300e-06	0.001366964630356177
4.89325e-06	0.0013695494196224872
4.89350e-06	0.0013721342088888063
4.89375e-06	0.0013707891116207442
4.89400e-06	0.0013694083123279531
4.89425e-06	0.0013680275130351573
4.89450e-06	0.0013666467137423662
4.89475e-06	0.0013652659144495751
4.89500e-06	0.0013638851151567795
4.89525e-06	0.0013625043158639885
4.89550e-06	0.0013611235165711974
4.89575e-06	0.0013597427172784015
