Time(s)	Current(A)
7.00000e-06	0.003184165197075048
7.00025e-06	0.00316745414350352
7.00050e-06	0.003150743089931992
7.00075e-06	0.0031340320363604074
7.00100e-06	0.003104540320218833
7.00125e-06	0.003061108324782284
7.00150e-06	0.0030176763293455876
7.00175e-06	0.0029742443339090385
7.00200e-06	0.0029308123384724893
7.00225e-06	0.0028873803430357926
7.00250e-06	0.0028439483475992434
7.00275e-06	0.0027956796092643652
7.00300e-06	0.002742135280051121
7.00325e-06	0.002688590950837876
7.00350e-06	0.00263504662162445
7.00375e-06	0.0025815022924112058
7.00400e-06	0.002527957963197961
7.00425e-06	0.002474413633984535
7.00450e-06	0.0024237105550352707
7.00475e-06	0.002376106519035231
7.00500e-06	0.00232850248303503
7.00525e-06	0.00228089844703499
7.00550e-06	0.0022332944110349503
7.00575e-06	0.002185690375034749
7.00600e-06	0.002138086339034709
7.00625e-06	0.0020904823030346693
7.00650e-06	0.002042878267034468
7.00675e-06	0.0020048687099357906
7.00700e-06	0.001977324159234549
7.00725e-06	0.0019497796085334012
7.00750e-06	0.0019222350578322533
7.00775e-06	0.001894690507131012
7.00800e-06	0.001867145956429864
7.00825e-06	0.001839601405728716
7.00850e-06	0.0018120568550274749
7.00875e-06	0.0017845123043263268
7.00900e-06	0.0017650119576371314
7.00925e-06	0.001754285682714605
7.00950e-06	0.001743559407792115
7.00975e-06	0.0017328331328696248
7.01000e-06	0.0017221068579470983
7.01025e-06	0.0017113805830246082
7.01050e-06	0.001700654308102118
7.01075e-06	0.0016899280331795917
7.01100e-06	0.0016792017582571016
7.01125e-06	0.0016736703234771855
7.01150e-06	0.0016738050677446823
7.01175e-06	0.001673939812012179
7.01200e-06	0.0016740745562796764
7.01225e-06	0.0016742093005471732
7.01250e-06	0.00167434404481467
7.01275e-06	0.001674478789082167
7.01300e-06	0.001674613533349664
7.01325e-06	0.0016747482776171608
7.01350e-06	0.0016770361818984776
7.01375e-06	0.0016816726069851572
7.01400e-06	0.001686309032071837
7.01425e-06	0.0016909454571585323
7.01450e-06	0.001695581882245212
7.01475e-06	0.0017002183073318916
7.01500e-06	0.001704854732418587
7.01525e-06	0.0017094911575052667
7.01550e-06	0.001714127582591962
7.01575e-06	0.0017196235768686804
7.01600e-06	0.0017251386363249107
7.01625e-06	0.0017306536957811596
7.01650e-06	0.00173616875523739
7.01675e-06	0.0017416838146936202
7.01700e-06	0.0017471988741498694
7.01725e-06	0.0017527139336060997
7.01750e-06	0.00175822899306233
7.01775e-06	0.0017711011835229282
7.01800e-06	0.001791998033144551
7.01825e-06	0.001812894882766174
7.01850e-06	0.0018337917323878676
7.01875e-06	0.0018546885820094905
7.01900e-06	0.0018755854316311134
7.01925e-06	0.001896482281252807
7.01950e-06	0.0019173791308744299
7.01975e-06	0.0019382759804961237
7.02000e-06	0.0019591728301177466
7.02025e-06	0.0019800696797393695
7.02050e-06	0.002021357795123315
7.02075e-06	0.002063098187236324
7.02100e-06	0.0021048385793493328
7.02125e-06	0.002146578971462483
7.02150e-06	0.0021883193635754924
7.02175e-06	0.0022300597556885013
7.02200e-06	0.002271800147801652
7.02225e-06	0.002313540539914661
7.02250e-06	0.00235528093202767
7.02275e-06	0.00239702132414082
7.02300e-06	0.002442432306029061
7.02325e-06	0.0024918469181158167
7.02350e-06	0.00254126153020274
7.02375e-06	0.0025906761422894962
7.02400e-06	0.0026400907543764193
7.02425e-06	0.0026895053664631754
7.02450e-06	0.002738919978549931
7.02475e-06	0.002785307754464608
7.02500e-06	0.002828394062918372
7.02525e-06	0.002871480371372136
7.02550e-06	0.0029145666798260465
7.02575e-06	0.0029576529882798107
7.02600e-06	0.003000739296733575
7.02625e-06	0.003043825605187485
7.02650e-06	0.0030790844798862056
7.02675e-06	0.0031058057211049046
7.02700e-06	0.003132526962323694
7.02725e-06	0.0031592482035423925
7.02750e-06	0.0031859694447610915
7.02775e-06	0.003212690685979881
7.02800e-06	0.00323941192719858
7.02825e-06	0.003266133168417369
7.02850e-06	0.0032928544096360677
7.02875e-06	0.0033195756508547667
7.02900e-06	0.003346296892073556
7.02925e-06	0.003362957762896293
7.02950e-06	0.0033793954954665236
7.02975e-06	0.0033958332280368104
7.03000e-06	0.003412270960607041
7.03025e-06	0.0034287086931772716
7.03050e-06	0.0034451464257475584
7.03075e-06	0.003461584158317789
7.03100e-06	0.00347802189088802
7.03125e-06	0.0034944596234583064
7.03150e-06	0.003510897356028537
7.03175e-06	0.0035246779897095074
7.03200e-06	0.0035355604402637778
7.03225e-06	0.003546442890818011
7.03250e-06	0.003557325341372281
7.03275e-06	0.0035682077919265147
7.03300e-06	0.0035790902424807478
7.03325e-06	0.003589972693035018
7.03350e-06	0.0036008551435892516
7.03375e-06	0.0036117375941434847
7.03400e-06	0.003622620044697755
7.03425e-06	0.003633502495251988
7.03450e-06	0.0036443849458062216
7.03475e-06	0.003655267396360492
7.03500e-06	0.003662957226410013
7.03525e-06	0.0036671647627016307
7.03550e-06	0.0036713722989932624
7.03575e-06	0.0036755798352848803
7.03600e-06	0.0036797873715764978
7.03625e-06	0.0036839949078681295
7.03650e-06	0.0036882024441597474
7.03675e-06	0.003692409980451379
7.03700e-06	0.0036966175167429966
7.03725e-06	0.0037008250530346145
7.03750e-06	0.0037050325893262463
7.03775e-06	0.0037092401256178637
7.03800e-06	0.0037134476619094816
7.03825e-06	0.003709839649075955
7.03850e-06	0.003697706965712011
7.03875e-06	0.0036855742823480673
7.03900e-06	0.0036734415989840823
7.03925e-06	0.0036613089156201386
7.03950e-06	0.003649176232256195
7.03975e-06	0.00363704354889221
7.04000e-06	0.003624910865528266
7.04025e-06	0.0036127781821643223
7.04050e-06	0.0036006454988003374
7.04075e-06	0.0035885128154363936
7.04100e-06	0.0035763801320724087
7.04125e-06	0.003550599632438709
7.04150e-06	0.0035245164252758793
7.04175e-06	0.003498433218112961
7.04200e-06	0.0034723500109501313
7.04225e-06	0.0034462668037873014
7.04250e-06	0.003420183596624383
7.04275e-06	0.0033941003894615534
7.04300e-06	0.0033680171822987235
7.04325e-06	0.0033419339751358055
7.04350e-06	0.0033158507679729755
7.04375e-06	0.0032897675608101456
7.04400e-06	0.003263551526132639
7.04425e-06	0.003237190612217565
7.04450e-06	0.003210829698302491
7.04475e-06	0.0031844687843873274
7.04500e-06	0.003158107870472253
7.04525e-06	0.0031317469565570895
7.04550e-06	0.0031053860426420157
7.04575e-06	0.0030790251287269414
7.04600e-06	0.003052664214811778
7.04625e-06	0.0030263033008967035
7.04650e-06	0.003006280864140136
7.04675e-06	0.0029863990143256694
7.04700e-06	0.0029665171645112706
7.04725e-06	0.002946635314696872
7.04750e-06	0.0029267534648824054
7.04775e-06	0.0029068716150680066
7.04800e-06	0.002886989765253608
7.04825e-06	0.0028671079154391414
7.04850e-06	0.0028472260656247426
7.04875e-06	0.002825864661514403
7.04900e-06	0.0028028894599982806
7.04925e-06	0.0027799142584822366
7.04950e-06	0.002756939056966114
7.04975e-06	0.00273396385545007
7.05000e-06	0.0027109886539340255
7.05025e-06	0.002688013452417903
7.05050e-06	0.002665038250901859
7.05075e-06	0.0026420630493858145
7.05100e-06	0.0026190878478696924
7.05125e-06	0.002596112646353648
7.05150e-06	0.0025731374448376035
7.05175e-06	0.0025459839531378203
7.05200e-06	0.0025187377872791534
7.05225e-06	0.002491491621420487
7.05250e-06	0.002464245455561728
7.05275e-06	0.002436999289703061
7.05300e-06	0.0024097531238443945
7.05325e-06	0.0023825069579856356
7.05350e-06	0.0023552607921269687
7.05375e-06	0.00232801462626821
7.05400e-06	0.0023007684604095433
7.05425e-06	0.002273522294550877
7.05450e-06	0.0022476253375735044
7.05475e-06	0.002223200006070358
7.05500e-06	0.0021987746745672112
7.05525e-06	0.002174349343063982
7.05550e-06	0.0021499240115608357
7.05575e-06	0.0021254986800576894
7.05600e-06	0.00210107334855446
7.05625e-06	0.002085483581392829
7.05650e-06	0.0020700897863771047
7.05675e-06	0.002054695991361328
7.05700e-06	0.002039302196345604
7.05725e-06	0.00202390840132988
7.05750e-06	0.0020085146063141034
7.05775e-06	0.0019992122875797957
7.05800e-06	0.001996554137731414
7.05825e-06	0.0019938959878830235
7.05850e-06	0.0019954510052855017
7.05875e-06	0.002001601459568283
7.05900e-06	0.0020077519138510438
7.05925e-06	0.0020185096869104477
7.05950e-06	0.0020342928105825096
7.05975e-06	0.002050075934254518
7.06000e-06	0.002070117698488715
7.06025e-06	0.002094804498804775
7.06050e-06	0.002119491299120751
7.06075e-06	0.002150013643070545
7.06100e-06	0.0021869010019447523
7.06125e-06	0.002223788360818835
7.06150e-06	0.0022606757196929174
7.06175e-06	0.002297563078567125
7.06200e-06	0.0023344504374412075
7.06225e-06	0.00237133779631529
7.06250e-06	0.0024130416140770755
7.06275e-06	0.002459998898289188
7.06300e-06	0.0025069561825014595
7.06325e-06	0.002553913466713572
7.06350e-06	0.0026008707509256844
7.06375e-06	0.002647828035137956
7.06400e-06	0.0026947853193500684
7.06425e-06	0.002741627495137009
7.06450e-06	0.0027883441184666075
7.06475e-06	0.0028350607417960473
7.06500e-06	0.002881777365125487
7.06525e-06	0.0029136853038110528
7.06550e-06	0.002954744094909816
7.06575e-06	0.003002458822773971
7.06600e-06	-0.049443107181129445
7.06625e-06	-0.023886984161787007
7.06650e-06	-0.009451366017936618
7.06675e-06	0.008634832125373
7.06700e-06	0.025080075023393267
7.06725e-06	0.023978329790120448
7.06750e-06	0.014334936675353018
7.06775e-06	0.00020504042579279878
7.06800e-06	-0.01424217920913005
7.06825e-06	-0.012555715754380123
7.06850e-06	-0.0030089552758043644
7.06875e-06	0.007909756609196338
7.06900e-06	0.018002687908510957
7.06925e-06	0.017190562583637325
7.06950e-06	0.011071434382653289
7.06975e-06	0.0021644040478263345
7.07000e-06	-0.006929332225635383
7.07025e-06	-0.005910508841015986
7.07050e-06	3.520074798414569e-05
7.07075e-06	0.006841977225284147
7.07100e-06	0.013132516959409512
7.07125e-06	0.012593187651887263
7.07150e-06	0.008730898844266874
7.07175e-06	0.0031237530487839248
7.07200e-06	-0.0025988322651190345
7.07225e-06	-0.00198572837887808
7.07250e-06	0.0017143133012436998
7.07275e-06	0.005954286478600917
7.07300e-06	0.009871427322407478
7.07325e-06	0.00951108749707931
7.07350e-06	0.00707027166945324
7.07375e-06	0.0035376423183446372
7.07400e-06	-6.608758719683874e-05
7.07425e-06	0.00029988028462790185
7.07450e-06	0.002600261671760452
7.07475e-06	0.0052395118117366055
7.07500e-06	0.007677192329835479
7.07525e-06	0.007436250942571746
7.07550e-06	0.00589307485865107
7.07575e-06	0.0036670559320577134
7.07600e-06	0.0013976075451160757
7.07625e-06	0.0016157756290856244
7.07650e-06	0.0030464970730619072
7.07675e-06	0.004690170348300382
7.07700e-06	0.006207425935699345
7.07725e-06	0.006045164430851742
7.07750e-06	0.005064734765847867
7.07775e-06	0.0036541342377198424
7.07800e-06	0.0022140599353195054
7.07825e-06	0.0023300350131289834
7.07850e-06	0.0032034058690017437
7.07875e-06	0.004208133527283077
7.07900e-06	0.005131786217245601
7.07925e-06	0.005001708716303697
7.07950e-06	0.004357672135399694
7.07975e-06	0.0034429058111054367
7.08000e-06	0.002508573043993167
7.08025e-06	0.002547953871034846
7.08050e-06	0.003060860516161727
7.08075e-06	0.0036552727812363974
7.08100e-06	0.004198276849876935
7.08125e-06	0.004080790934206937
7.08150e-06	0.0036411285802796893
7.08175e-06	0.0030318266789328098
7.08200e-06	0.002410378323631063
7.08225e-06	0.0023991027882116654
7.08250e-06	0.002684798979435291
7.08275e-06	0.0030220474108906205
7.08300e-06	0.0033277484967003746
7.08325e-06	0.0032205526632217065
7.08350e-06	0.0029125651694421207
7.08375e-06	0.002499508203074788
7.08400e-06	0.0020801990335873803
7.08425e-06	0.0020445993289306586
7.08450e-06	0.002196654233435903
7.08475e-06	0.002382782596470871
7.08500e-06	0.002551090118500512
7.08525e-06	0.0024628724478019783
7.08550e-06	0.0022511697423948118
7.08575e-06	0.001976110932359463
7.08600e-06	0.0016997589964562495
7.08625e-06	0.0016665351504866126
7.08650e-06	0.0017537749669027647
7.08675e-06	0.0018654324935981341
7.08700e-06	0.001969162985385028
7.08725e-06	0.001915535992899759
7.08750e-06	0.0017878296572101634
7.08775e-06	0.0016235510510539547
7.08800e-06	0.0014614024658535685
7.08825e-06	0.0014543065200225058
7.08850e-06	0.0015252404949643408
7.08875e-06	0.0016138617207843294
7.08900e-06	0.0016997339428748612
7.08925e-06	0.0016890834646693202
7.08950e-06	0.0016339073297835865
7.08975e-06	0.0015575279636811702
7.09000e-06	0.0014840146624235002
7.09025e-06	0.0015089785180449433
7.09050e-06	0.001583991091736673
7.09075e-06	0.0016710766334036968
7.09100e-06	0.0017572587395246237
7.09125e-06	0.001783626148991211
7.09150e-06	0.0017825790939974284
7.09175e-06	0.0017685544483648694
7.09200e-06	0.0017564551619561495
7.09225e-06	0.001805994940387088
7.09250e-06	0.0018866596606214806
7.09275e-06	0.001974485479031841
7.09300e-06	0.0020611696047938277
7.09325e-06	0.002109637554198621
7.09350e-06	0.0021400136307511025
7.09375e-06	0.002161168327249345
7.09400e-06	0.002182262756738531
7.09425e-06	0.002240526231523049
7.09450e-06	0.0023166326149841997
7.09475e-06	0.0023948705797558877
7.09500e-06	0.0024716548637062196
7.09525e-06	0.002521729090749365
7.09550e-06	0.0025580520680851303
7.09575e-06	0.0025844207205556295
7.09600e-06	0.0026118013732119778
7.09625e-06	0.0026577249633330242
7.09650e-06	0.0027117555441633664
7.09675e-06	0.002763005643367847
7.09700e-06	0.002813230734719548
7.09725e-06	0.002844686848513485
7.09750e-06	0.0028676686410568303
7.09775e-06	0.002884839435365074
7.09800e-06	0.0029026660678456275
7.09825e-06	0.002932512999706592
7.09850e-06	0.002967694952216479
7.09875e-06	0.0030014598193285197
7.09900e-06	0.0030344610290254934
7.09925e-06	0.003053818685154264
7.09950e-06	0.0030729881147484026
7.09975e-06	0.003088794676705206
7.10000e-06	0.003104601238662062
7.10025e-06	0.003120884966433363
7.10050e-06	0.003145522650487456
7.10075e-06	0.0031671031019660898
7.10100e-06	0.0031886835534446507
7.10125e-06	0.0032098360929973028
7.10150e-06	0.003223314116669729
7.10175e-06	0.003236266640596623
7.10200e-06	0.0032492191645235604
7.10225e-06	0.0032624642848511974
7.10250e-06	0.0032809369517033736
7.10275e-06	0.0032991765233863274
7.10300e-06	0.003313251601456491
7.10325e-06	0.003327326679526655
7.10350e-06	0.0033412207280619846
7.10375e-06	0.0033518804910306044
7.10400e-06	0.0033625402539992242
7.10425e-06	0.003373349214331228
7.10450e-06	0.0033868237445611937
7.10475e-06	0.00340029827479116
7.10500e-06	0.0034135182710611956
7.10525e-06	0.003422190746876015
7.10550e-06	0.0034308632226908637
7.10575e-06	0.0034395091854085478
7.10600e-06	0.003447681463390584
7.10625e-06	0.0034558537413726482
7.10650e-06	0.0034639866549130236
7.10675e-06	0.0034714162807520186
7.10700e-06	0.0034788459065910387
7.10725e-06	0.003486083988158665
7.10750e-06	0.003489899927187723
7.10775e-06	0.0034937158662167937
7.10800e-06	0.0034975387327952053
7.10825e-06	0.0035014853674255673
7.10850e-06	0.0035054320020559433
7.10875e-06	0.0035092648010890803
7.10900e-06	0.0035110638058623795
7.10925e-06	0.0035128628106356843
7.10950e-06	0.00351456041155412
7.10975e-06	0.0035144463245387293
7.11000e-06	0.003514332237523339
7.11025e-06	0.003514205060566115
7.11050e-06	0.003513844017848021
7.11075e-06	0.0035134829751299287
7.11100e-06	0.0035130206272868795
7.11125e-06	0.0035107483554252393
7.11150e-06	0.0035084760835636065
7.11175e-06	0.003506172115284048
7.11200e-06	0.003503301856719288
7.11225e-06	0.0035004315981545376
7.11250e-06	0.00349753868930074
7.11275e-06	0.003494241108894659
7.11300e-06	0.003490943528488589
7.11325e-06	0.0034875981093227394
7.11350e-06	0.0034833979997316382
7.11375e-06	0.0034791978901405514
7.11400e-06	0.0034750109157425024
7.11425e-06	0.003471058615566478
7.11450e-06	0.0034671063153904535
7.11475e-06	0.0034631496710979537
7.11500e-06	0.003459115414535363
7.11525e-06	0.0034550811579727725
7.11550e-06	0.0034510578028387902
7.11575e-06	0.0034472292133447607
7.11600e-06	0.003443400623850731
7.11625e-06	0.0034396024349444337
7.11650e-06	0.003436347384935938
7.11675e-06	0.003433092334927442
7.11700e-06	0.0034295860337285105
7.11725e-06	0.0034215908622560803
7.11750e-06	0.00341359569078365
7.11775e-06	0.0034052298954204406
7.11800e-06	0.0033902425092782263
7.11825e-06	0.0033752551231359612
7.11850e-06	0.003359932886243848
7.11875e-06	0.003338628183857588
7.11900e-06	0.003317323481471256
7.11925e-06	0.0032955520704136625
7.11950e-06	0.003265442411576344
7.11975e-06	0.0032353327527389238
7.12000e-06	0.0032048292273422004
7.12025e-06	0.0031672888561228834
7.12050e-06	0.0031297484849034394
7.12075e-06	0.0030918636779044602
7.12100e-06	0.0030478251586411927
7.12125e-06	0.003003786639377776
7.12150e-06	0.0029594180536518804
7.12175e-06	0.00290915247882409
7.12200e-06	0.0028588869039961294
7.12225e-06	0.002808428394450345
7.12250e-06	0.0027545229005599167
7.12275e-06	0.0027006174066696712
7.12300e-06	0.0026465921986380883
7.12325e-06	0.0025904281698939952
7.12350e-06	0.0025342641411500925
7.12375e-06	0.002478093497501572
7.12400e-06	0.00242180467153248
7.12425e-06	0.0023655158455635782
7.12450e-06	0.0023093716013345474
7.12475e-06	0.0022558104639660843
7.12500e-06	0.0022022493265978025
7.12525e-06	0.0021489427190762053
7.12550e-06	0.0021001835585126903
7.12575e-06	0.0020514243979493406
7.12600e-06	0.0020030791214368134
7.12625e-06	0.0019621283245593304
7.12650e-06	0.0019211775276819858
7.12675e-06	0.001880617489428562
7.12700e-06	0.0018470387704161227
7.12725e-06	0.0018134600514036834
7.12750e-06	0.0017800528015791803
7.12775e-06	0.0017497090315296679
7.12800e-06	0.0017193652614801555
7.12825e-06	0.0016892710600988404
7.12850e-06	0.001663635668935511
7.12875e-06	0.001638000277772182
7.12900e-06	0.001612517792515057
7.12925e-06	0.001589767134221492
7.12950e-06	0.0015670164759279267
7.12975e-06	0.001544361384082832
7.13000e-06	0.001523413688683508
7.13025e-06	0.0015024659932841838
7.13050e-06	0.001481661742173792
7.13075e-06	0.0014634202761507641
7.13100e-06	0.0014451788101276742
7.13125e-06	0.0014269949036478536
7.13150e-06	0.0014098393597468274
7.13175e-06	0.001392683815845743
7.13200e-06	0.0013756044605896592
7.13225e-06	0.00135988629666723
7.13250e-06	0.0013441681327447479
7.13275e-06	0.0013285353414066764
7.13300e-06	0.00131442782226683
7.13325e-06	0.0013003203031269363
7.13350e-06	0.0012862591479687825
7.13375e-06	0.0012730263347520367
7.13400e-06	0.001259793521535246
7.13425e-06	0.001246641167032487
7.13450e-06	0.0012349262931970425
7.13475e-06	0.0012232114193615584
7.13500e-06	0.0012115681370591868
7.13525e-06	0.0012012039137875433
7.13550e-06	0.001190839690515935
7.13575e-06	0.001180547873299242
7.13600e-06	0.0011715496674139204
7.13625e-06	0.0011625514615286293
7.13650e-06	0.0011536510352876425
7.13675e-06	0.0011464975465919967
7.13700e-06	0.0011393440578963752
7.13725e-06	0.0011322708283980482
7.13750e-06	0.0011266315149883034
7.13775e-06	0.0011209922015785775
7.13800e-06	0.0011154382093314142
7.13825e-06	0.0011114085705765757
7.13850e-06	0.001107378931821751
7.13875e-06	0.0011034356982017387
7.13900e-06	0.001101036184393341
7.13925e-06	0.0010986366705849516
7.13950e-06	0.0010963064507821497
7.13975e-06	0.0010952142422327694
7.14000e-06	0.001094122033683389
7.14025e-06	0.001093153409625515
7.14050e-06	0.001094392754206649
7.14075e-06	0.0010956320987877827
7.14100e-06	0.0010968714433689207
7.14125e-06	0.0010981107879500546
7.14150e-06	0.0010993501325311883
7.14175e-06	0.0011005894771123263
7.14200e-06	0.00110182882169346
7.14225e-06	0.001103068166274594
7.14250e-06	0.0011044101145536755
7.14275e-06	0.001107585187236076
7.14300e-06	0.0011107602599184766
7.14325e-06	0.0011139353326008877
7.14350e-06	0.0011171104052832884
7.14375e-06	0.0011202854779656997
7.14400e-06	0.0011234605506481002
7.14425e-06	0.0011266356233305007
7.14450e-06	0.001129810696012912
7.14475e-06	0.0011329609216654817
7.14500e-06	0.0011356672286519924
7.14525e-06	0.0011383735356385125
7.14550e-06	0.0011410798426250233
7.14575e-06	0.001143786149611534
7.14600e-06	0.001146492456598054
7.14625e-06	0.0011491987635845646
7.14650e-06	0.0011519050705710754
7.14675e-06	0.0011546113775575953
7.14700e-06	0.001157317684544106
7.14725e-06	0.0011600239915306168
7.14750e-06	0.001162613644068106
7.14775e-06	0.0011631191405619007
7.14800e-06	0.001163624637055697
7.14825e-06	0.0011641301335494918
7.14850e-06	0.0011646356300432864
