Time(s)	Current(A)
1.00000e-05	0.0022467159015614447
1.00003e-05	0.0022335158331647036
1.00005e-05	0.0022203157647680523
1.00008e-05	0.0022071156963713113
1.00010e-05	0.00219391562797457
1.00013e-05	0.002180715559577919
1.00015e-05	0.002167515491181178
1.00018e-05	0.0021543154227844368
1.00020e-05	0.0021411153543877855
1.00023e-05	0.0021279152859910444
1.00025e-05	0.0021147152175943033
1.00028e-05	0.002101515149197652
1.00030e-05	0.002088315080800911
1.00033e-05	0.00207511501240417
1.00035e-05	0.002064013407493145
1.00038e-05	0.002054784731385208
1.00040e-05	0.002045556055277271
1.00042e-05	0.002036327379169397
1.00045e-05	0.00202709870306146
1.00048e-05	0.002017870026953523
1.00050e-05	0.002008641350845649
1.00053e-05	0.0019994126747377118
1.00055e-05	0.0019901839986297748
1.00057e-05	0.0019809553225219006
1.00060e-05	0.0019717266464139636
1.00063e-05	0.0019624979703060266
1.00065e-05	0.0019532692941981525
1.00068e-05	0.0019440406180902155
1.00070e-05	0.0019351079067815114
1.00073e-05	0.0019363023931760373
1.00075e-05	0.001937496879570555
1.00078e-05	0.001938691365965081
1.00080e-05	0.0019398858523596069
1.00083e-05	0.0019410803387541246
1.00085e-05	0.0019422748251486505
1.00088e-05	0.0019434693115431762
1.00090e-05	0.0019446637979376941
1.00093e-05	0.0019458582843322198
1.00095e-05	0.0019470527707267458
1.00098e-05	0.0019482472571212635
1.00100e-05	0.0019494417435157894
1.00103e-05	0.001956418609587722
1.00105e-05	0.0019685563876910045
1.00108e-05	0.001980694165794369
1.00110e-05	0.001992831943897734
1.00113e-05	0.0020049697220010164
1.00115e-05	0.0020171075001043813
1.00118e-05	0.0020292452782077457
1.00120e-05	0.0020413830563110282
1.00123e-05	0.002053520834414393
1.00125e-05	0.002065658612517758
1.00127e-05	0.0020777963906210405
1.00130e-05	0.002089934168724405
1.00133e-05	0.0021021448389441436
1.00135e-05	0.002116849700622237
1.00138e-05	0.00213155456230043
1.00140e-05	0.0021462594239786232
1.00142e-05	0.0021609642856567166
1.00145e-05	0.0021756691473349098
1.00148e-05	0.0021903740090131025
1.00150e-05	0.002205078870691196
1.00153e-05	0.002219783732369389
1.00155e-05	0.002234488594047582
1.00157e-05	0.0022490014041577815
1.00160e-05	0.002256942675336206
1.00163e-05	0.00226488394651463
1.00165e-05	0.0022728252176930546
1.00168e-05	0.002280766488871425
1.00170e-05	0.0022887077600498495
1.00173e-05	0.002296649031228274
1.00175e-05	0.0023045903024066445
1.00178e-05	0.002312531573585069
1.00180e-05	0.002320472844763493
1.00183e-05	0.0023280820970082985
1.00185e-05	0.002324330466477887
1.00188e-05	0.0023205788359474755
1.00190e-05	0.0023168272054170896
1.00193e-05	0.002313075574886678
1.00195e-05	0.0023093239443562666
1.00198e-05	0.0023055723138258807
1.00200e-05	0.0023018206832954692
1.00203e-05	0.002298069052765058
1.00205e-05	0.002294317422234672
1.00208e-05	0.002290565791704261
1.00210e-05	0.0022868141611738493
1.00212e-05	0.002278519727962578
1.00215e-05	0.002266170734807592
1.00218e-05	0.002253821741652606
1.00220e-05	0.0022414727484977035
1.00223e-05	0.0022291237553427176
1.00225e-05	0.0022167747621877317
1.00227e-05	0.002204425769032829
1.00230e-05	0.002192076775877843
1.00233e-05	0.0021797277827228572
1.00235e-05	0.0021673787895679546
1.00238e-05	0.0021550297964129687
1.00240e-05	0.002142692429782343
1.00242e-05	0.002130752894621982
1.00245e-05	0.0021188133594615406
1.00248e-05	0.0021068738243010987
1.00250e-05	0.0020949342891406573
1.00253e-05	0.0020829947539802965
1.00255e-05	0.002071055218819855
1.00258e-05	0.0020591156836594136
1.00260e-05	0.002047176148499053
1.00263e-05	0.0020352366133386114
1.00265e-05	0.0020232970781781695
1.00268e-05	0.0020113575430178087
1.00270e-05	0.002004366241786031
1.00273e-05	0.00200179135757479
1.00275e-05	0.001999216473363566
1.00278e-05	0.001996641589152325
1.00280e-05	0.001994066704941084
1.00283e-05	0.00199149182072986
1.00285e-05	0.001988916936518619
1.00288e-05	0.001986342052307378
1.00290e-05	0.0019837671680961546
1.00293e-05	0.001981192283884913
1.00295e-05	0.001978617399673672
1.00297e-05	0.001976323596209751
1.00300e-05	0.0019836476943313084
1.00303e-05	0.0019909717924528653
1.00305e-05	0.0019982958905743727
1.00308e-05	0.0020056199886959295
1.00310e-05	0.0020129440868174864
1.00312e-05	0.002020268184938994
1.00315e-05	0.0020275922830605506
1.00318e-05	0.002034916381182108
1.00320e-05	0.002042240479303615
1.00323e-05	0.002049564577425172
1.00325e-05	0.002059134097148359
1.00327e-05	0.0020707077093060685
1.00330e-05	0.002082281321463856
1.00333e-05	0.0020938549336216436
1.00335e-05	0.002105428545779431
1.00338e-05	0.00211700215793714
1.00340e-05	0.0021285757700949277
1.00343e-05	0.0021401493822527156
1.00345e-05	0.0021517229944104247
1.00348e-05	0.002163296606568212
1.00350e-05	0.002174779527251708
1.00353e-05	0.002183159205597053
1.00355e-05	0.002191538883942454
1.00358e-05	0.0021999185622878555
1.00360e-05	0.0022082982406332005
1.00363e-05	0.0022166779189786018
1.00365e-05	0.002225057597324003
1.00368e-05	0.002233437275669348
1.00370e-05	0.0022418169540147494
1.00373e-05	0.002249847105980217
1.00375e-05	0.002245917312766433
1.00378e-05	0.0022419875195526227
1.00380e-05	0.002238057726338812
1.00382e-05	0.0022341279331250284
1.00385e-05	0.0022301981399112177
1.00388e-05	0.0022262683466974073
1.00390e-05	0.0022223385534836234
1.00393e-05	0.002218408760269813
1.00395e-05	0.002214062466394094
1.00397e-05	0.0021954645298077977
1.00400e-05	0.002176866593221376
1.00403e-05	0.002158268656634954
1.00405e-05	0.0021396707200486576
1.00408e-05	0.0021210727834622355
1.00410e-05	0.0021024748468758134
1.00412e-05	0.0020838769102895175
1.00415e-05	0.0020652789737030954
1.00418e-05	0.002041957657924163
1.00420e-05	0.0020144206133481776
1.00423e-05	0.001986883568772378
1.00425e-05	0.0019593465241963927
1.00428e-05	0.001931809479620407
1.00430e-05	0.0019042724350446078
1.00433e-05	0.001876735390468622
1.00435e-05	0.0018491983458926364
1.00438e-05	0.0018216859880511697
1.00440e-05	0.0017950183503986973
1.00443e-05	0.001768350712746225
1.00445e-05	0.0017416830750939332
1.00448e-05	0.0017150154374414607
1.00450e-05	0.0016883477997889883
1.00453e-05	0.0016616801621366964
1.00455e-05	0.0016350125244842242
1.00458e-05	0.0016083448868317517
1.00460e-05	0.00158167724917946
1.00463e-05	0.001560866464209777
1.00465e-05	0.0015452830602130456
1.00467e-05	0.0015296996562164202
1.00470e-05	0.0015141162522196892
1.00473e-05	0.001498532848222958
1.00475e-05	0.0014829494442263325
1.00478e-05	0.0014673660402296014
1.00480e-05	0.0014517826362328704
1.00482e-05	0.0014361992322362448
1.00485e-05	0.0014209418619144838
1.00488e-05	0.0014168405734095797
1.00490e-05	0.0014127392849047034
1.00493e-05	0.0014086379963997992
1.00495e-05	0.0014045367078948951
1.00497e-05	0.0014004354193900188
1.00500e-05	0.0013963341308851148
1.00503e-05	0.0013922328423802107
1.00505e-05	0.0013881315538753064
1.00508e-05	0.0013840302653704301
1.00510e-05	0.0013801434999210131
1.00513e-05	0.0013835971932736574
1.00515e-05	0.0013870508866262784
1.00518e-05	0.0013905045799789226
1.00520e-05	0.001393958273331567
1.00523e-05	0.001397411966684188
1.00525e-05	0.0014008656600368323
1.00528e-05	0.0014043193533894768
1.00530e-05	0.0014077730467420978
1.00533e-05	0.001411226740094742
1.00535e-05	0.0014147489378190739
1.00538e-05	0.0014206151890396948
1.00540e-05	0.0014264814402603554
1.00543e-05	0.001432347691481016
1.00545e-05	0.0014382139427016366
1.00548e-05	0.0014440801939222972
1.00550e-05	0.0014499464451429578
1.00552e-05	0.0014557914167805282
1.00555e-05	0.001460908252682308
1.00558e-05	0.001466025088584088
1.00560e-05	0.001471141924485833
1.00563e-05	0.0014762587603876127
1.00565e-05	0.0014813755962893925
1.00567e-05	0.0014864924321911375
1.00570e-05	0.0014917534806894708
1.00573e-05	0.0015019491345750738
1.00575e-05	0.0015121447884606078
1.00578e-05	0.001522515119222335
1.00580e-05	0.0015388624691541313
1.00582e-05	0.0015552098190858169
1.00585e-05	0.0015717338028106566
1.00588e-05	0.0015943017666591678
1.00590e-05	0.0016168697305076792
1.00593e-05	0.0016396711272230581
1.00595e-05	0.0016704600306581294
1.00598e-05	0.0017012489340932006
1.00600e-05	0.001732339012588969
1.00603e-05	0.00177373457143156
1.00605e-05	0.0018151301302741507
1.00608e-05	0.0018565256891164613
1.00610e-05	0.001897921247959052
1.00613e-05	0.001939316806801643
1.00615e-05	0.0019807123656439534
1.00618e-05	0.0020223930289649398
1.00620e-05	0.0020738292762690217
1.00623e-05	0.002125265523572755
1.00625e-05	0.002176701770876837
1.00628e-05	0.0022281380181809187
1.00630e-05	0.002279574265484652
1.00633e-05	0.002331010512788734
1.00635e-05	0.00238244890212354
1.00637e-05	0.0024339605865558167
1.00640e-05	0.0024854722709884425
1.00643e-05	0.0025369839554210682
1.00645e-05	0.002588495639853345
1.00648e-05	0.0026400073242859707
1.00650e-05	0.0026915190087185964
1.00652e-05	0.0027426647638469056
1.00655e-05	0.00278128930541481
1.00658e-05	0.0028199138469827147
1.00660e-05	0.0028585383885503576
1.00663e-05	0.0028971629301182624
1.00665e-05	0.0029357874716861667
1.00667e-05	0.0029744120132538096
1.00670e-05	0.003012278296818836
1.00673e-05	0.0030241988299618363
1.00675e-05	0.0030361193631048364
1.00678e-05	0.0030480398962477555
1.00680e-05	0.0030599604293907556
1.00683e-05	0.0030718809625337557
1.00685e-05	0.003083801495676675
1.00688e-05	0.003095722028819675
1.00690e-05	0.003107642561962675
1.00693e-05	0.0031195630951055945
1.00695e-05	0.0031306499194804494
1.00698e-05	0.003113209251173181
1.00700e-05	0.0030957685828660307
1.00703e-05	0.003078327914558762
1.00705e-05	0.0030608872462514936
1.00708e-05	0.0030434465779443434
1.00710e-05	0.003026005909637075
1.00713e-05	0.0030085652413298068
1.00715e-05	0.0029911245730226566
1.00718e-05	0.002973683904715388
1.00720e-05	0.002955802138732012
1.00722e-05	0.0029228270797295977
1.00725e-05	0.0028898520207269597
1.00728e-05	0.002856876961724322
1.00730e-05	0.002823901902721908
1.00733e-05	0.00279092684371927
1.00735e-05	0.0027579517847166318
1.00737e-05	0.0027249767257142175
1.00740e-05	0.002691510610426952
1.00743e-05	0.002657606215671191
1.00745e-05	0.0026237018209156597
1.00748e-05	0.002589797426159899
1.00750e-05	0.002555893031404138
1.00752e-05	0.0025219886366486073
1.00755e-05	0.0024880842418928462
1.00758e-05	0.002454442865810769
1.00760e-05	0.0024298013510549834
1.00763e-05	0.002405159836299365
1.00765e-05	0.0023805183215435794
1.00768e-05	0.002355876806787794
1.00770e-05	0.0023312352920321754
1.00773e-05	0.00230659377727639
1.00775e-05	0.0022819522625206045
1.00778e-05	0.0022573826752061354
1.00780e-05	0.0022352742705418127
1.00783e-05	0.00221316586587749
1.00785e-05	0.0021910574612133173
1.00788e-05	0.0021689490565489945
1.00790e-05	0.002146840651884672
1.00793e-05	0.0021247322472204987
1.00795e-05	0.002102623842556176
1.00798e-05	0.0020804618528007927
1.00800e-05	0.0020564663111439447
1.00803e-05	0.0020324707694869336
1.00805e-05	0.002008475227829923
1.00808e-05	0.001984479686173075
1.00810e-05	0.0019604841445160642
1.00813e-05	0.0019364886028590536
1.00815e-05	0.0019124930612022053
1.00818e-05	0.001887914439417885
1.00820e-05	0.001862815404686298
1.00822e-05	0.0018377163699548815
1.00825e-05	0.0018126173352232947
1.00828e-05	0.0017875183004917078
1.00830e-05	0.0017624192657602913
1.00833e-05	0.0017373202310287045
1.00835e-05	0.0017123740872652187
1.00837e-05	0.0016930134358787146
1.00840e-05	0.0016712428246831166
1.00843e-05	-0.00039873377601983137
1.00845e-05	-0.006223890609417336
1.00848e-05	-0.009191952796188656
1.00850e-05	-0.008236952585858314
1.00853e-05	-0.005868704902463022
1.00855e-05	-0.0018887180307512036
1.00858e-05	0.0009997624209284405
1.00860e-05	0.0013751930224828338
1.00863e-05	-0.00013363059020843012
1.00865e-05	-0.002884273642824938
1.00868e-05	-0.004986683682493119
1.00870e-05	-0.004937277097087447
1.00873e-05	-0.003276782826802946
1.00875e-05	-0.000914439377847456
1.00878e-05	0.0009646411490160415
1.00880e-05	0.001385788261981476
1.00883e-05	0.00045896065587120263
1.00885e-05	-0.0010697080820293785
1.00888e-05	-0.0019819710572327896
1.00890e-05	-0.002092253452670207
1.00893e-05	-0.001028559556897226
1.00895e-05	0.00034428841415576816
1.00898e-05	0.0014676724126535907
1.00900e-05	0.0017351752654042852
1.00903e-05	0.0011595226730072455
1.00905e-05	0.0002447638056564249
1.00907e-05	-0.0005221617271562467
1.00910e-05	-0.0005364615649559694
1.00913e-05	0.00014444880326207083
1.00915e-05	0.00101142914435261
1.00918e-05	0.0017220767908414443
1.00920e-05	0.0018965273577074091
1.00922e-05	0.0015427628790343293
1.00925e-05	0.0009765145919613092
1.00928e-05	0.0005027676865559449
1.00930e-05	0.0005002985523924626
1.00933e-05	0.0009330614306149918
1.00935e-05	0.0014820666580715482
1.00938e-05	0.0019327928326476642
1.00940e-05	0.0020472734091479265
1.00943e-05	0.0018304983534836409
1.00945e-05	0.0014802219484515177
1.00948e-05	0.0011874493784902796
1.00950e-05	0.0011893885935084733
1.00953e-05	0.0014633938309269205
1.00955e-05	0.0018095935081245615
1.00958e-05	0.0020935701640064815
1.00960e-05	0.002166232893874522
1.00963e-05	0.0020306851027739807
1.00965e-05	0.0018108049968707538
1.00968e-05	0.0016265682007867552
1.00970e-05	0.0016273308428389447
1.00973e-05	0.001799535497418819
1.00975e-05	0.0020181475403574503
1.00978e-05	0.0021989272250262323
1.00980e-05	0.0022484237161185545
1.00983e-05	0.0021685247449222123
1.00985e-05	0.0020367675993004457
1.00988e-05	0.001928237882432182
1.00990e-05	0.0019364173614602952
1.00992e-05	0.00205273531042131
1.00995e-05	0.002198795421666193
1.00998e-05	0.0023217614736410833
1.01000e-05	0.0023630325012877922
1.01003e-05	0.002323730118813111
1.01005e-05	0.00225236010223161
1.01007e-05	0.002195888471514516
1.01010e-05	0.0022127996319574275
1.01013e-05	0.0022976499450451547
1.01015e-05	0.0024012599266355376
1.01018e-05	0.002490464271493658
1.01020e-05	0.00252848980940227
1.01023e-05	0.0025159752636800935
1.01025e-05	0.002483239564947202
1.01028e-05	0.0024596343515305217
1.01030e-05	0.002481722935018991
1.01033e-05	0.0025460230521804354
1.01035e-05	0.0026216576721712027
1.01038e-05	0.0026877834341587103
1.01040e-05	0.002721299199480289
1.01043e-05	0.002722539833930645
1.01045e-05	0.002710430346084007
1.01048e-05	0.0027032881700120182
1.01050e-05	0.0027239469373552968
1.01053e-05	0.002770154004117572
1.01055e-05	0.0028190217361521016
1.01058e-05	0.0028664617947039913
1.01060e-05	0.0028916868049385386
1.01063e-05	0.002894136329434657
1.01065e-05	0.0028887305825353055
1.01068e-05	0.002882404806777852
1.01070e-05	0.002892631716542384
1.01073e-05	0.0029184358105458284
1.01075e-05	0.0029445095008131727
1.01077e-05	0.002969254741620622
1.01080e-05	0.002974437559060496
1.01083e-05	0.0029717801465091436
1.01085e-05	0.0029622085230009477
1.01088e-05	0.002949865821334849
1.01090e-05	0.0029497285353590136
1.01092e-05	0.0029544829371024096
1.01095e-05	0.002959164536682293
1.01098e-05	0.0029638169586038003
1.01100e-05	0.002955587137414935
1.01103e-05	0.0029421943695460443
1.01105e-05	0.002924012283091679
1.01108e-05	0.0029039107330564324
1.01110e-05	0.0028914781485239213
1.01113e-05	0.0028821191327511814
1.01115e-05	0.0028727601169784415
1.01118e-05	0.002857197736335829
1.01120e-05	0.002839149170501068
1.01123e-05	0.0028211006046663075
1.01125e-05	0.0027992603425879225
1.01128e-05	0.0027759004441101297
1.01130e-05	0.002752540545632337
1.01133e-05	0.002732344840275317
1.01135e-05	0.002713417280553102
1.01138e-05	0.002694489720830887
1.01140e-05	0.0026755621611088006
1.01143e-05	0.0026535157434032296
1.01145e-05	0.0026302193494834934
1.01148e-05	0.002606922955563915
1.01150e-05	0.002583626561644179
1.01153e-05	0.0025644670509387107
1.01155e-05	0.002546965520701333
1.01158e-05	0.0025294639904638373
1.01160e-05	0.0025119624602263414
1.01162e-05	0.002494460929988964
1.01165e-05	0.002476959399751468
1.01168e-05	0.002464287190505472
1.01170e-05	0.0024535504770091974
1.01173e-05	0.0024428137635128504
1.01175e-05	0.002432077050016503
1.01177e-05	0.0024213403365202285
1.01180e-05	0.002410603623023881
1.01183e-05	0.002407709867126357
1.01185e-05	0.0024079594125593767
1.01188e-05	0.002408208957992395
1.01190e-05	0.0024084585034254142
1.01193e-05	0.002408708048858434
1.01195e-05	0.002408957594291452
1.01198e-05	0.0024092071397244716
1.01200e-05	0.0024094566851574914
1.01203e-05	0.0024097062305905095
1.01205e-05	0.002412440459461942
1.01208e-05	0.002424306758995481
1.01210e-05	0.0024361730585289393
1.01213e-05	0.002448039358062478
1.01215e-05	0.0024599056575960168
1.01218e-05	0.0024717719571294753
1.01220e-05	0.002483638256663014
1.01223e-05	0.0024955045561965527
1.01225e-05	0.002507370855730011
1.01228e-05	0.0025192371552635495
1.01230e-05	0.0025343629965261954
1.01233e-05	0.0025507951972489184
1.01235e-05	0.0025672273979717533
1.01238e-05	0.0025836595986945877
1.01240e-05	0.002600091799417311
1.01243e-05	0.0026165240001401456
1.01245e-05	0.0026329562008629804
1.01247e-05	0.002649388401585704
1.01250e-05	0.0026649110553971906
1.01253e-05	0.0026770908098524906
1.01255e-05	0.0026892705643077083
1.01258e-05	0.002701450318763008
1.01260e-05	0.002713630073218308
1.01262e-05	0.0027258098276735252
1.01265e-05	0.0027379895821288253
1.01268e-05	0.0027501693365841254
1.01270e-05	0.002762349091039425
1.01273e-05	0.002765235976698026
1.01275e-05	0.0027643984654702482
1.01278e-05	0.0027635609542424706
1.01280e-05	0.0027627234430146986
1.01283e-05	0.002761885931786921
1.01285e-05	0.0027610484205591434
1.01288e-05	0.002760210909331372
1.01290e-05	0.0027593733981035942
1.01293e-05	0.0027585358868758166
1.01295e-05	0.0027576983756480446
1.01298e-05	0.002756860864420267
1.01300e-05	0.0027560233531924894
1.01303e-05	0.002745286202105568
1.01305e-05	0.0027305814723647412
1.01308e-05	0.0027158767426239145
1.01310e-05	0.0027011720128831875
1.01313e-05	0.002686467283142361
1.01315e-05	0.0026717625534015345
1.01318e-05	0.0026570578236608075
1.01320e-05	0.002642353093919981
1.01323e-05	0.002627648364179154
1.01325e-05	0.002612943634438427
1.01328e-05	0.0025982389046976004
1.01330e-05	0.0025835341749567736
1.01332e-05	0.002566104538910244
1.01335e-05	0.0025475828146414503
1.01338e-05	0.0025290610903726564
1.01340e-05	0.002510539366103988
1.01343e-05	0.0024920176418351935
1.01345e-05	0.0024734959175663996
1.01347e-05	0.002454974193297731
1.01350e-05	0.0024364524690289368
1.01353e-05	0.002417930744760143
1.01355e-05	0.002399409020491349
1.01358e-05	0.0023833423247974057
1.01360e-05	0.002368259555701508
1.01363e-05	0.0023531767866056103
1.01365e-05	0.002338094017509815
1.01368e-05	0.0023230112484139173
1.01370e-05	0.0023079284793180196
1.01373e-05	0.002292845710222224
1.01375e-05	0.002277762941126326
1.01378e-05	0.0022626801720304285
1.01380e-05	0.002247597402934633
1.01383e-05	0.0022291767196160562
1.01385e-05	0.002209418266700724
1.01388e-05	0.002189659813785525
1.01390e-05	0.002169901360870193
1.01393e-05	0.00215014290795486
1.01395e-05	0.0021303844550396617
1.01398e-05	0.002110626002124329
1.01400e-05	0.0020908675492089966
1.01403e-05	0.002071109096293798
1.01405e-05	0.0020513506433784655
1.01408e-05	0.0020315921904631327
1.01410e-05	0.0020070802458486063
1.01413e-05	0.0019806631963539497
1.01415e-05	0.001954246146859293
1.01417e-05	0.0019278290973648155
1.01420e-05	0.001901412047870159
1.01423e-05	0.0018749949983755021
1.01425e-05	0.0018485779488810247
1.01428e-05	0.0018221608993863679
1.01430e-05	0.0017957438498917113
1.01432e-05	0.0017693268003972336
1.01435e-05	0.001742909750902577
1.01438e-05	0.00171654192312805
1.01440e-05	0.0016901938224394549
1.01443e-05	0.0016638457217510384
1.01445e-05	0.0016374976210624434
1.01448e-05	0.0016111495203738483
1.01450e-05	0.0015848014196854319
1.01453e-05	0.0015597052518881648
1.01455e-05	0.001539210370300632
1.01458e-05	0.0015187154887132382
1.01460e-05	0.0014982206071257052
1.01463e-05	0.0014777257255381723
1.01465e-05	0.0014572308439507785
1.01468e-05	0.0014367359623632455
1.01470e-05	0.0014228755540409087
1.01473e-05	0.001411674110579879
1.01475e-05	0.0014004726671187732
1.01478e-05	0.001395065893579211
1.01480e-05	0.0013919815084325275
1.01483e-05	0.0013888971232858232
