Time(s)	Current(A)
2.50000e-06	0.008112548550063093
2.50025e-06	0.008103682359152754
2.50050e-06	0.008094816168242428
2.50075e-06	0.008085949977332087
2.50100e-06	0.008077083786421746
2.50125e-06	0.00806821759551142
2.50150e-06	0.00805935140460108
2.50175e-06	0.00805048521369074
2.50200e-06	0.008041619022780399
2.50225e-06	0.008032752831870073
2.50250e-06	0.008023886640959732
2.50275e-06	0.008009405691522222
2.50300e-06	0.007985141190558006
2.50325e-06	0.007960876689593749
2.50350e-06	0.007936612188629491
2.50375e-06	0.007912347687665276
2.50400e-06	0.007888083186701016
2.50425e-06	0.007863818685736759
2.50450e-06	0.007839554184772501
2.50475e-06	0.007815289683808286
2.50500e-06	0.007791025182844028
2.50525e-06	0.007766760681879771
2.50550e-06	0.007743648767573797
2.50575e-06	0.007720717299654676
2.50600e-06	0.007697785831735555
2.50625e-06	0.0076748543638164345
2.50650e-06	0.007651922895897352
2.50675e-06	0.007628991427978232
2.50700e-06	0.007606059960059111
2.50725e-06	0.007583128492140029
2.50750e-06	0.0075601970242209085
2.50775e-06	0.007537265556301787
2.50800e-06	0.0075161131646780096
2.50825e-06	0.007498060761151951
2.50850e-06	0.007480008357625893
2.50875e-06	0.007461955954099834
2.50900e-06	0.007443903550573806
2.50925e-06	0.007425851147047748
2.50950e-06	0.00740779874352169
2.50975e-06	0.007389746339995662
2.51000e-06	0.007371693936469604
2.51025e-06	0.0073536415329435445
2.51050e-06	0.007335589129417486
2.51075e-06	0.007317536725891458
2.51100e-06	0.0072994843223654
2.51125e-06	0.007281431918839342
2.51150e-06	0.007263379515313313
2.51175e-06	0.007243156064141469
2.51200e-06	0.0072225927186105295
2.51225e-06	0.007202029373079626
2.51250e-06	0.007181466027548687
2.51275e-06	0.007160902682017749
2.51300e-06	0.00714033933648681
2.51325e-06	0.007119775990955906
2.51350e-06	0.0070992126454249675
2.51375e-06	0.007078649299894029
2.51400e-06	0.007058085954363125
2.51425e-06	0.007037522608832186
2.51450e-06	0.007016959263301248
2.51475e-06	0.006996395917770309
2.51500e-06	0.0069758325722394056
2.51525e-06	0.006957124036045573
2.51550e-06	0.0069416474505466915
2.51575e-06	0.006926170865047836
2.51600e-06	0.0069106942795489545
2.51625e-06	0.006895217694050073
2.51650e-06	0.0068797411085512175
2.51675e-06	0.006864264523052336
2.51700e-06	0.0068487879375534536
2.51725e-06	0.006833311352054572
2.51750e-06	0.0068178347665557165
2.51775e-06	0.006802358181056835
2.51800e-06	0.0067868815955579535
2.51825e-06	0.006771405010059098
2.51850e-06	0.006755928424560216
2.51875e-06	0.006746372065128975
2.51900e-06	0.0067471315254270525
2.51925e-06	0.00674789098572513
2.51950e-06	0.006748650446023209
2.51975e-06	0.006749409906321288
2.52000e-06	0.0067501693666193645
2.52025e-06	0.006750928826917443
2.52050e-06	0.006751688287215522
2.52075e-06	0.0067524477475136
2.52100e-06	0.006753207207811677
2.52125e-06	0.006753966668109756
2.52150e-06	0.006754726128407835
2.52175e-06	0.0067554855887059125
2.52200e-06	0.006756245049003991
2.52225e-06	0.0067614731117351095
2.52250e-06	0.006774487582724141
2.52275e-06	0.006787502053713195
2.52300e-06	0.006800516524702249
2.52325e-06	0.006813530995691303
2.52350e-06	0.006826545466680335
2.52375e-06	0.006839559937669389
2.52400e-06	0.006852574408658442
2.52425e-06	0.006865588879647474
2.52450e-06	0.006878603350636528
2.52475e-06	0.006891617821625582
2.52500e-06	0.006904757694881472
2.52525e-06	0.006918116077897624
2.52550e-06	0.006931474460913778
2.52575e-06	0.00694483284392993
2.52600e-06	0.006958191226946061
2.52625e-06	0.006971549609962213
2.52650e-06	0.0069849079929783665
2.52675e-06	0.006998266375994496
2.52700e-06	0.007011624759010649
2.52725e-06	0.007024983142026802
2.52750e-06	0.0070383415250429545
2.52775e-06	0.007052843358418675
2.52800e-06	0.007069337620401867
2.52825e-06	0.00708583188238506
2.52850e-06	0.007102326144368224
2.52875e-06	0.007118820406351417
2.52900e-06	0.007135314668334609
2.52925e-06	0.007151808930317773
2.52950e-06	0.007168303192300966
2.52975e-06	0.007184797454284159
2.53000e-06	0.00720129171626735
2.53025e-06	0.007232924580852267
2.53050e-06	0.007266927511170325
2.53075e-06	0.007300930441488382
2.53100e-06	0.007334933371806383
2.53125e-06	0.00736893630212444
2.53150e-06	0.007402939232442497
2.53175e-06	0.007436942162760554
2.53200e-06	0.007470945093078554
2.53225e-06	0.007504948023396612
2.53250e-06	0.007543989411769283
2.53275e-06	0.007591810165054061
2.53300e-06	0.00763963091833892
2.53325e-06	0.00768745167162378
2.53350e-06	0.007735272424908558
2.53375e-06	0.007783093178193417
2.53400e-06	0.007830913931478277
2.53425e-06	0.007878734684763135
2.53450e-06	0.007926555438047914
2.53475e-06	0.007974376191332773
2.53500e-06	0.008022196944617631
2.53525e-06	0.008065346765504897
2.53550e-06	0.008107765315672666
2.53575e-06	0.008150183865840434
2.53600e-06	0.008192602416008202
2.53625e-06	0.008235020966175899
2.53650e-06	0.008277439516343667
2.53675e-06	0.008319858066511436
2.53700e-06	0.008362276616679131
2.53725e-06	0.008404695166846901
2.53750e-06	0.008447113717014669
2.53775e-06	0.008478493027495163
2.53800e-06	0.008490636787630465
2.53825e-06	0.008502780547765768
2.53850e-06	0.008514924307901071
2.53875e-06	0.008527068068036353
2.53900e-06	0.008539211828171656
2.53925e-06	0.008551355588306957
2.53950e-06	0.008563499348442239
2.53975e-06	0.008575643108577542
2.54000e-06	0.008587786868712845
2.54025e-06	0.00856765376645992
2.54050e-06	0.00854246747088787
2.54075e-06	0.008517281175315779
2.54100e-06	0.008492094879743688
2.54125e-06	0.00846690858417164
2.54150e-06	0.008441722288599547
2.54175e-06	0.008416535993027456
2.54200e-06	0.008391349697455409
2.54225e-06	0.008366163401883318
2.54250e-06	0.008331568605365873
2.54275e-06	0.008280579772779179
2.54300e-06	0.008229590940192572
2.54325e-06	0.008178602107605876
2.54350e-06	0.008127613275019182
2.54375e-06	0.008076624442432574
2.54400e-06	0.008025635609845878
2.54425e-06	0.007974646777259184
2.54450e-06	0.007923657944672577
2.54475e-06	0.007872669112085881
2.54500e-06	0.007820041503178105
2.54525e-06	0.007767157331118122
2.54550e-06	0.007714273159058229
2.54575e-06	0.007661388986998246
2.54600e-06	0.007608504814938263
2.54625e-06	0.007555620642878369
2.54650e-06	0.007502736470818386
2.54675e-06	0.007449852298758403
2.54700e-06	0.00739696812669842
2.54725e-06	0.007353660039144711
2.54750e-06	0.007327037997084803
2.54775e-06	0.007300415955024896
2.54800e-06	0.007273793912965034
2.54825e-06	0.007247171870905127
2.54850e-06	0.00722054982884522
2.54875e-06	0.007193927786785357
2.54900e-06	0.007167305744725449
2.54925e-06	0.007140683702665542
2.54950e-06	0.007114061660605635
2.54975e-06	0.007100535241126618
2.55000e-06	0.007109827558680976
2.55025e-06	0.0071191198762353336
2.55050e-06	0.007128412193789676
2.55075e-06	0.007137704511344034
2.55100e-06	0.007146996828898391
2.55125e-06	0.007156289146452749
2.55150e-06	0.007165581464007091
2.55175e-06	0.007174873781561449
2.55200e-06	0.007184166099115807
2.55225e-06	0.0071997308438724915
2.55250e-06	0.007229923899583319
2.55275e-06	0.007266561989970307
2.55300e-06	0.007303200080357231
2.55325e-06	0.007339838170744218
2.55350e-06	0.007376476261131204
2.55375e-06	0.0074131143515181915
2.55400e-06	0.007449752441905116
2.55425e-06	0.007486390532292103
2.55450e-06	0.007523028622679089
2.55475e-06	0.007559666713066014
2.55500e-06	0.007596826926997553
2.55525e-06	0.007634896925843011
2.55550e-06	0.007672966924688469
2.55575e-06	0.007711036923533862
2.55600e-06	0.00774910692237932
2.55625e-06	0.007787176921224779
2.55650e-06	0.007825246920070172
2.55675e-06	0.00786331691891563
2.55700e-06	0.007901386917761087
2.55725e-06	0.007939456916606481
2.55750e-06	0.007968406109271983
2.55775e-06	0.00798146256553041
2.55800e-06	0.007994519021788838
2.55825e-06	0.008007575478047245
2.55850e-06	0.008020631934305673
2.55875e-06	0.0080336883905641
2.55900e-06	0.008046744846822508
2.55925e-06	0.008059801303080935
2.55950e-06	0.008072857759339365
2.55975e-06	0.008085914215597793
2.56000e-06	0.008067913302831787
2.56025e-06	0.008045050117896614
2.56050e-06	0.00802218693296144
2.56075e-06	0.007999323748026303
2.56100e-06	0.007976460563091129
2.56125e-06	0.007953597378155954
2.56150e-06	0.00793073419322082
2.56175e-06	0.007907871008285645
2.56200e-06	0.00788500782335047
2.56225e-06	0.007852407179530086
2.56250e-06	0.0078028393001074595
2.56275e-06	0.007753271420684749
2.56300e-06	0.007703703541262039
2.56325e-06	0.0076541356618394125
2.56350e-06	0.007604567782416702
2.56375e-06	0.007554999902993991
2.56400e-06	0.007505432023571281
2.56425e-06	0.007455864144148654
2.56450e-06	0.007406296264725944
2.56475e-06	0.007353026082453234
2.56500e-06	0.007299176275934389
2.56525e-06	0.0072453264694154525
2.56550e-06	0.007191476662896517
2.56575e-06	0.007137626856377672
2.56600e-06	0.007083777049858736
2.56625e-06	0.007029927243339801
2.56650e-06	0.006976077436820864
2.56675e-06	0.006922227630302019
2.56700e-06	0.0068774846622828845
2.56725e-06	0.006848610092399932
2.56750e-06	0.006819735522517028
2.56775e-06	0.006790860952634076
2.56800e-06	0.0067619863827511235
2.56825e-06	0.006733111812868171
2.56850e-06	0.006704237242985267
2.56875e-06	0.006675362673102315
2.56900e-06	0.006646488103219363
2.56925e-06	0.006617613533336459
2.56950e-06	0.0065887389634535064
2.56975e-06	0.006559864393570554
2.57000e-06	0.00653098982368765
2.57025e-06	0.006502115253804698
2.57050e-06	0.0064732406839217455
2.57075e-06	0.00645282731143868
2.57100e-06	0.0064471573264721724
2.57125e-06	0.006441487341505655
2.57150e-06	0.006435817356539138
2.57175e-06	0.006430147371572631
2.57200e-06	0.006424477386606114
2.57225e-06	0.006418807401639596
2.57250e-06	0.006413137416673079
2.57275e-06	0.0064074674317065716
2.57300e-06	0.0064017974467400545
2.57325e-06	0.0063961274617735375
2.57350e-06	0.00639045747680703
2.57375e-06	0.006384787491840513
2.57400e-06	0.006379117506873996
2.57425e-06	0.0063734475219074885
2.57450e-06	0.00637036462689267
2.57475e-06	0.006371789659999193
2.57500e-06	0.006373214693105717
2.57525e-06	0.0063746397262122384
2.57550e-06	0.006376064759318762
2.57575e-06	0.006377489792425286
2.57600e-06	0.006378914825531808
2.57625e-06	0.006380339858638332
2.57650e-06	0.006381764891744856
2.57675e-06	0.0063831899248513796
2.57700e-06	0.006384614957957901
2.57725e-06	0.006386039991064425
2.57750e-06	0.006387465024170948
2.57775e-06	0.00638889005727747
2.57800e-06	0.006390315090383993
2.57825e-06	0.006391740123490517
2.57850e-06	0.006393165156597038
2.57875e-06	0.006392241707465022
2.57900e-06	0.00638722609713127
2.57925e-06	0.006382210486797518
2.57950e-06	0.006377194876463774
2.57975e-06	0.006372179266130022
2.58000e-06	0.00636716365579627
2.58025e-06	0.006362148045462526
2.58050e-06	0.006357132435128774
2.58075e-06	0.006352116824795022
2.58100e-06	0.00634710121446127
2.58125e-06	0.006342085604127526
2.58150e-06	0.006337069993793774
2.58175e-06	0.006332054383460022
2.58200e-06	0.0063270387731262775
2.58225e-06	0.0063220231627925255
2.58250e-06	0.0063170075524587735
2.58275e-06	0.006311991942125029
2.58300e-06	0.006305087047168634
2.58325e-06	0.00629489012934525
2.58350e-06	0.006284693211521866
2.58375e-06	0.0062744962936985
2.58400e-06	0.006264299375875117
2.58425e-06	0.006254102458051733
2.58450e-06	0.0062439055402283665
2.58475e-06	0.006233708622404983
2.58500e-06	0.006223511704581599
2.58525e-06	0.006213314786758216
2.58550e-06	0.00620311786893485
2.58575e-06	0.00619450239295565
2.58600e-06	0.006186134503971423
2.58625e-06	0.006177766614987211
2.58650e-06	0.006169398726002984
2.58675e-06	0.006161030837018757
2.58700e-06	0.006152662948034545
2.58725e-06	0.006144295059050318
2.58750e-06	0.006135927170066092
2.58775e-06	0.006127559281081865
2.58800e-06	0.006119191392097652
2.58825e-06	0.006117814355332481
2.58850e-06	0.006128618672869292
2.58875e-06	0.006139422990406085
2.58900e-06	0.0061502273079428954
2.58925e-06	0.006161031625479706
2.58950e-06	0.006171835943016518
2.58975e-06	0.0061826402605533095
2.59000e-06	0.006193444578090121
2.59025e-06	0.006204248895626932
2.59050e-06	0.006215053213163724
2.59075e-06	0.006225857530700535
2.59100e-06	0.006259528871506807
2.59125e-06	0.006296780222287081
2.59150e-06	0.0063340315730674186
2.59175e-06	0.006371282923847756
2.59200e-06	0.006408534274628092
2.59225e-06	0.0064457856254083665
2.59250e-06	0.006483036976188704
2.59275e-06	0.006520288326969041
2.59300e-06	0.006557539677749315
2.59325e-06	0.006594791028529653
2.59350e-06	0.0066365777698690525
2.59375e-06	0.006686267295814371
2.59400e-06	0.006735956821759606
2.59425e-06	0.006785646347704925
2.59450e-06	0.006835335873650244
2.59475e-06	0.0068850253995954794
2.59500e-06	0.006934714925540798
2.59525e-06	0.006984404451486117
2.59550e-06	0.007034093977431352
2.59575e-06	0.007080556581776181
2.59600e-06	0.007121396370176646
2.59625e-06	0.00716223615857711
2.59650e-06	0.007203075946977506
2.59675e-06	0.00724391573537797
2.59700e-06	0.007284755523778435
2.59725e-06	0.00732559531217883
2.59750e-06	0.007366435100579295
2.59775e-06	0.00740727488897976
2.59800e-06	0.007440829747446908
2.59825e-06	0.007461690829846757
2.59850e-06	0.0074825519122466416
2.59875e-06	0.007503412994646527
2.59900e-06	0.007524274077046376
2.59925e-06	0.0075451351594462614
2.59950e-06	0.007565996241846146
2.59975e-06	0.007586857324245995
2.60000e-06	0.0076077184066458805
2.60025e-06	0.007628579489045766
2.60050e-06	0.00764944057144565
2.60075e-06	0.0076703016538454995
2.60100e-06	0.007691162736245385
2.60125e-06	0.00771202381864527
2.60150e-06	0.0077328849010451185
2.60175e-06	0.007753745983445004
2.60200e-06	0.007774607065844889
2.60225e-06	0.007795468148244773
2.60250e-06	0.0078123766657984175
2.60275e-06	0.007822397955401995
2.60300e-06	0.007832419245005573
2.60325e-06	0.007842440534609134
2.60350e-06	0.007852461824212712
2.60375e-06	0.00786248311381629
2.60400e-06	0.00787250440341985
2.60425e-06	0.007882525693023428
2.60450e-06	0.007892546982627004
2.60475e-06	0.007902568272230582
2.60500e-06	0.007912589561834143
2.60525e-06	0.00792261085143772
2.60550e-06	0.007932632141041299
2.60575e-06	0.00794265343064486
2.60600e-06	0.007952674720248437
2.60625e-06	0.007962696009852015
2.60650e-06	0.007972717299455593
2.60675e-06	0.007982738589059154
2.60700e-06	0.007989120295516364
2.60725e-06	0.0079891601354265
2.60750e-06	0.007989199975336637
2.60775e-06	0.007989239815246773
2.60800e-06	0.00798927965515691
2.60825e-06	0.007989319495067046
2.60850e-06	0.007989359334977183
2.60875e-06	0.00798939917488732
2.60900e-06	0.007989439014797456
2.60925e-06	0.007980689067558406
2.60950e-06	0.007956623174828903
2.60975e-06	0.0079325572820994
2.61000e-06	0.007908491389369936
2.61025e-06	0.007884425496640432
2.61050e-06	0.007860359603910929
2.61075e-06	0.007836293711181426
2.61100e-06	0.007812227818451964
2.61125e-06	0.0077881619257224605
2.61150e-06	0.0077551419302155835
2.61175e-06	0.007706519674070785
2.61200e-06	0.007657897417925903
2.61225e-06	0.007609275161781022
2.61250e-06	0.007560652905636223
2.61275e-06	0.007512030649491342
2.61300e-06	0.007463408393346461
2.61325e-06	0.0074147861372015796
2.61350e-06	0.007366163881056781
2.61375e-06	0.0073175416249118995
2.61400e-06	0.007266003915793055
2.61425e-06	0.00720938611564681
2.61450e-06	0.007152768315500468
2.61475e-06	0.007096150515354127
2.61500e-06	0.007039532715207786
2.61525e-06	0.00698291491506154
2.61550e-06	0.0069262971149151985
2.61575e-06	0.006869679314768858
2.61600e-06	0.006813061514622612
2.61625e-06	0.006756443714476271
2.61650e-06	0.006707731717169793
2.61675e-06	0.006672795348704417
2.61700e-06	0.006637858980238982
2.61725e-06	0.0066029226117735465
2.61750e-06	0.006567986243308111
2.61775e-06	0.006533049874842735
2.61800e-06	0.006498113506377299
2.61825e-06	0.006463177137911864
2.61850e-06	0.006428240769446487
2.61875e-06	0.006393304400981052
2.61900e-06	0.006358368032515617
2.61925e-06	0.00632343166405024
2.61950e-06	0.006288495295584805
2.61975e-06	0.006280805012779697
2.62000e-06	0.006277380316155417
2.62025e-06	0.006273955619531143
2.62050e-06	0.006270530922906864
2.62075e-06	0.0062671062262825835
2.62100e-06	0.0062636815296583095
2.62125e-06	0.00626025683303403
2.62150e-06	0.00625683213640975
2.62175e-06	0.006253407439785471
2.62200e-06	0.006249982743161197
2.62225e-06	0.006246558046536917
2.62250e-06	0.006243133349912638
2.62275e-06	0.006246268955356876
2.62300e-06	0.006260835694136223
2.62325e-06	0.006275402432915568
2.62350e-06	0.00628996917169489
2.62375e-06	0.006304535910474236
2.62400e-06	0.006319102649253582
2.62425e-06	0.006333669388032929
2.62450e-06	0.00634823612681225
2.62475e-06	0.006362802865591596
2.62500e-06	0.006377369604370942
2.62525e-06	0.006391936343150263
2.62550e-06	0.00640650308192961
2.62575e-06	0.006420631534075135
2.62600e-06	0.006433996284656619
2.62625e-06	0.0064473610352380785
2.62650e-06	0.006460725785819562
2.62675e-06	0.006474090536401045
2.62700e-06	0.006487455286982505
2.62725e-06	0.006500820037563988
2.62750e-06	0.006514184788145471
2.62775e-06	0.006527549538726932
2.62800e-06	0.006540914289308415
2.62825e-06	0.0065542790398898975
2.62850e-06	0.006567643790471381
2.62875e-06	0.006577080993220995
2.62900e-06	0.006579674559430837
2.62925e-06	0.006582268125640681
2.62950e-06	0.006584861691850519
2.62975e-06	0.006587455258060361
2.63000e-06	0.006590048824270204
2.63025e-06	0.006592642390480046
2.63050e-06	0.006595235956689884
2.63075e-06	0.0065978295228997265
2.63100e-06	0.00660042308910957
2.63125e-06	0.006603016655319408
2.63150e-06	0.00660561022152925
2.63175e-06	0.006608203787739093
2.63200e-06	0.006610797353948931
2.63225e-06	0.006613390920158773
2.63250e-06	0.006615984486368616
2.63275e-06	0.006618578052578459
2.63300e-06	0.006621171618788297
2.63325e-06	0.006623765184998139
2.63350e-06	0.006626358751207982
2.63375e-06	0.006624602356840563
2.63400e-06	0.006622164942382398
2.63425e-06	0.006619727527924232
2.63450e-06	0.006617290113466067
2.63475e-06	0.0066148526990079054
2.63500e-06	0.00661241528454974
2.63525e-06	0.006609977870091575
2.63550e-06	0.006607540455633413
2.63575e-06	0.006605103041175248
2.63600e-06	0.0066026656267170825
2.63625e-06	0.006600228212258922
2.63650e-06	0.006597790797800756
2.63675e-06	0.006595353383342591
2.63700e-06	0.006592915968884425
2.63725e-06	0.006590478554426265
2.63750e-06	0.006588041139968099
2.63775e-06	0.006585603725509934
2.63800e-06	0.0065831663110517726
2.63825e-06	0.006580728896593608
2.63850e-06	0.006581948946135244
2.63875e-06	0.006589542019086084
2.63900e-06	0.006597135092036912
2.63925e-06	0.006604728164987752
2.63950e-06	0.0066123212379385924
2.63975e-06	0.006619914310889419
2.64000e-06	0.00662750738384026
2.64025e-06	0.0066351004567911
2.64050e-06	0.006642693529741928
2.64075e-06	0.006650286602692769
2.64100e-06	0.006657879675643609
2.64125e-06	0.00666547274859445
2.64150e-06	0.006673065821545277
2.64175e-06	0.006680658894496118
2.64200e-06	0.006688251967446958
2.64225e-06	0.0066958450403977856
2.64250e-06	0.006712126646388798
2.64275e-06	0.00672976850966376
2.64300e-06	0.006747410372938721
2.64325e-06	0.006765052236213653
2.64350e-06	0.006782694099488615
2.64375e-06	0.0068003359627635766
2.64400e-06	0.006817977826038509
2.64425e-06	0.00683561968931347
2.64450e-06	0.006853261552588432
2.64475e-06	0.006870903415863364
2.64500e-06	0.0068885452791383256
2.64525e-06	0.006906187142413287
2.64550e-06	0.006923829005688249
2.64575e-06	0.006941470868963181
2.64600e-06	0.0069591127322381425
2.64625e-06	0.006973363956433532
2.64650e-06	0.006981707091792338
2.64675e-06	0.006990050227151158
2.64700e-06	0.006998393362509978
2.64725e-06	0.007006736497868799
2.64750e-06	0.0070150796332276045
2.64775e-06	0.007023422768586425
2.64800e-06	0.007031765903945245
2.64825e-06	0.0070401090393040515
2.64850e-06	0.007048452174662871
2.64875e-06	0.007056795310021692
2.64900e-06	0.0070651384453804976
2.64925e-06	0.007073481580739318
2.64950e-06	0.007081824716098138
2.64975e-06	0.007090167851456958
2.65000e-06	0.007098510986815764
2.65025e-06	0.007106854122174584
2.65050e-06	0.0071151972575334045
2.65075e-06	0.00712354039289221
2.65100e-06	0.007131883528251031
