Time(s)	Current(A)
1.48000e-05	0.0018225786885602765
1.48003e-05	0.0018209138024072162
1.48005e-05	0.001819248916254156
1.48008e-05	0.0018175840301011068
1.48010e-05	0.0018159191439480464
1.48013e-05	0.001814254257794986
1.48015e-05	0.0018300744062860847
1.48018e-05	0.00184900932733715
1.48020e-05	0.001867944248388215
1.48023e-05	0.0018868791694391519
1.48025e-05	0.001905814090490217
1.48028e-05	0.0019247490115412822
1.48030e-05	0.0019436839325922188
1.48033e-05	0.0019665868968962758
1.48035e-05	0.001996898218115084
1.48038e-05	0.0020272095393336874
1.48040e-05	0.0020575208605524958
1.48043e-05	0.002087832181771304
1.48045e-05	0.0021181435029899074
1.48048e-05	0.0021484548242087158
1.48050e-05	0.002178766145427524
1.48053e-05	0.0022089126563718422
1.48055e-05	0.002239029808122602
1.48058e-05	0.0022691469598733614
1.48060e-05	0.0022992641116239172
1.48063e-05	0.002329381263374677
1.48065e-05	0.0023594984151254364
1.48068e-05	0.0023896155668759918
1.48070e-05	0.0024197327186267514
1.48073e-05	0.002449849870377511
1.48075e-05	0.0024799670221280668
1.48078e-05	0.0025100841738788264
1.48080e-05	0.0025289854188597044
1.48083e-05	0.0025458886695919093
1.48085e-05	0.002562791920324
1.48088e-05	0.002579695171056205
1.48090e-05	0.0025965984217884105
1.48093e-05	0.002613501672520501
1.48095e-05	0.002630404923252706
1.48098e-05	0.0026473081739849112
1.48100e-05	0.0026642114247170017
1.48103e-05	0.002681114675449207
1.48105e-05	0.002698017926181412
1.48108e-05	0.0027057640487288307
1.48110e-05	0.002711878926489244
1.48113e-05	0.002717993804249657
1.48115e-05	0.0027241086820100286
1.48118e-05	0.0027302235597704417
1.48120e-05	0.002736338437530855
1.48123e-05	0.0027424533152912265
1.48125e-05	0.0027485681930516396
1.48128e-05	0.002754683070812053
1.48130e-05	0.0027607979485724243
1.48133e-05	0.0027669128263328375
1.48135e-05	0.0027730277040932502
1.48138e-05	0.002779142581853622
1.48140e-05	0.002785257459614035
1.48143e-05	0.002791372337374448
1.48145e-05	0.0027929602816620437
1.48148e-05	0.0027937418010005326
1.48150e-05	0.0027945233203390215
1.48153e-05	0.0027953048396775052
1.48155e-05	0.002796086359015994
1.48158e-05	0.002796867878354483
1.48160e-05	0.002797649397692967
1.48163e-05	0.0027984309170314557
1.48165e-05	0.0027992124363699447
1.48168e-05	0.0027999939557084336
1.48170e-05	0.0028007754750469173
1.48173e-05	0.0028015569943854062
1.48175e-05	0.002802338513723895
1.48178e-05	0.0028031200330623784
1.48180e-05	0.0028039015524008674
1.48183e-05	0.0027962181373648075
1.48185e-05	0.002787026784490829
1.48188e-05	0.0027778354316167885
1.48190e-05	0.002768644078742748
1.48193e-05	0.0027594527258687695
1.48195e-05	0.002750261372994729
1.48198e-05	0.002741070020120688
1.48200e-05	0.00273187866724671
1.48203e-05	0.0027226873143726695
1.48205e-05	0.0027134959614986288
1.48208e-05	0.0027043046086246505
1.48210e-05	0.0026951132557506098
1.48213e-05	0.002679526128710091
1.48215e-05	0.0026519980587968754
1.48218e-05	0.0026244699888834733
1.48220e-05	0.002596941918970071
1.48223e-05	0.002569413849056855
1.48225e-05	0.002541885779143453
1.48228e-05	0.0025143577092300506
1.48230e-05	0.002486829639316835
1.48233e-05	0.002459301569403433
1.48235e-05	0.002431773499490031
1.48238e-05	0.002404245429576815
1.48240e-05	0.0023767173596634127
1.48243e-05	0.0023491892897500107
1.48245e-05	0.0023160864555632735
1.48248e-05	0.002281990536537478
1.48250e-05	0.0022478946175116823
1.48253e-05	0.002213798698485886
1.48255e-05	0.0021797027794603213
1.48258e-05	0.0021456068604345257
1.48260e-05	0.00211151094140873
1.48263e-05	0.0020814424653007903
1.48265e-05	0.002052091435223537
1.48268e-05	0.002022740405146284
1.48270e-05	0.00199338937506923
1.48273e-05	0.001964038344991977
1.48275e-05	0.0019346873149147237
1.48278e-05	0.0019053362848376696
1.48280e-05	0.0018839495480213236
1.48283e-05	0.0018639815651653876
1.48285e-05	0.001844013582309587
1.48288e-05	0.001833542800190827
1.48290e-05	0.0018247638431616235
1.48293e-05	0.0018159848861324793
1.48295e-05	0.0018171526954312144
1.48298e-05	0.0018200924151380014
1.48300e-05	0.0018230321348447684
1.48303e-05	0.001836359622688792
1.48305e-05	0.0018515375807128711
1.48308e-05	0.0018667155387368474
1.48310e-05	0.0018926908442167929
1.48313e-05	0.0019205895820670815
1.48315e-05	0.001948488319917181
1.48318e-05	0.0019828111455161977
1.48320e-05	0.002024058280571725
1.48323e-05	0.002066335047964392
1.48325e-05	0.0021086118153573453
1.48328e-05	0.002162386548878602
1.48330e-05	0.002218209522519289
1.48333e-05	0.0022740324961603546
1.48335e-05	0.00232985546980142
1.48338e-05	0.0023856784434424854
1.48340e-05	0.0024415014170831727
1.48343e-05	0.0025003567497618767
1.48345e-05	0.0025648735121766805
1.48348e-05	0.0026293902745910475
1.48350e-05	0.0026939070370058512
1.48353e-05	0.002758423799420655
1.48355e-05	0.0028229405618350216
1.48358e-05	0.0028874573242498257
1.48360e-05	0.00294550670874735
1.48363e-05	0.003002403998797948
1.48365e-05	0.0030593012888489313
1.48368e-05	0.0031161985788999147
1.48370e-05	0.0031730958689505126
1.48373e-05	0.003229993159001496
1.48375e-05	0.0032868904490524794
1.48378e-05	0.0033437877391030773
1.48380e-05	0.0033786984506621216
1.48383e-05	0.003409692487595529
1.48385e-05	0.003440686524528726
1.48388e-05	0.0034716805614621333
1.48390e-05	0.0035026745983955405
1.48393e-05	0.0035336686353287378
1.48395e-05	0.003564662672262145
1.48398e-05	0.003595656709195552
1.48400e-05	0.0035998461896598693
1.48403e-05	0.003599260724071365
1.48405e-05	0.0035986752584828605
1.48408e-05	0.00359808979289436
1.48410e-05	0.003597504327305856
1.48413e-05	0.0035969188617173517
1.48415e-05	0.0035963333961288512
1.48418e-05	0.003595747930540347
1.48420e-05	0.0035951624649518425
1.48423e-05	0.0035731746382025157
1.48425e-05	0.003547374208918079
1.48428e-05	0.0035215737796334677
1.48430e-05	0.003495773350348856
1.48433e-05	0.0034699729210644196
1.48435e-05	0.003444172491779808
1.48438e-05	0.0034183720624951963
1.48440e-05	0.00339257163321076
1.48443e-05	0.0033667712039261483
1.48445e-05	0.003332088815730198
1.48448e-05	0.003295824201217921
1.48450e-05	0.003259559586705398
1.48453e-05	0.003223294972192875
1.48455e-05	0.003187030357680598
1.48458e-05	0.0031507657431680746
1.48460e-05	0.0031145011286555515
1.48463e-05	0.0030798573547163193
1.48465e-05	0.0030482396983661834
1.48468e-05	0.003016622042016048
1.48470e-05	0.002985004385666126
1.48473e-05	0.0029533867293159905
1.48475e-05	0.0029217690729658546
1.48478e-05	0.002890151416615933
1.48480e-05	0.0028585337602657973
1.48483e-05	0.0028421865878249996
1.48485e-05	0.002828559689341393
1.48488e-05	0.0028149327908576936
1.48490e-05	0.0028013058923739946
1.48493e-05	0.002787678993890388
1.48495e-05	0.002774052095406689
1.48498e-05	0.00276042519692299
1.48500e-05	0.0027467982984393834
1.48503e-05	0.002733171399955684
1.48505e-05	0.002719544501471985
1.48508e-05	0.002705917602988286
1.48510e-05	0.0026922907045046794
1.48513e-05	0.002694422036811156
1.48515e-05	0.002699360529983489
1.48518e-05	0.0027042990231557888
1.48520e-05	0.002709237516328122
1.48523e-05	0.002714176009500455
1.48525e-05	0.002719114502672755
1.48528e-05	0.0027240529958450885
1.48530e-05	0.0027289914890174217
1.48533e-05	0.0027339299821897214
1.48535e-05	0.0027388684753620546
1.48538e-05	0.0027438069685343878
1.48540e-05	0.0027487454617066876
1.48543e-05	0.002760465657358355
1.48545e-05	0.0027733939410282374
1.48548e-05	0.002786322224698032
1.48550e-05	0.0027992505083679143
1.48553e-05	0.0028121787920377967
1.48555e-05	0.0028251070757075916
1.48558e-05	0.0028380353593774736
1.48560e-05	0.002850963643047356
1.48563e-05	0.002863891926717151
1.48565e-05	0.0028746838543229503
1.48568e-05	0.002885095212864871
1.48570e-05	0.0028955065714067205
1.48573e-05	0.002905917929948641
1.48575e-05	0.0029163292884905614
1.48578e-05	0.0029267406470324113
1.48580e-05	0.0029371520055743315
1.48583e-05	0.0029475633641162517
1.48585e-05	0.0029579747226581017
1.48588e-05	0.0029529969858239752
1.48590e-05	0.002945277845662803
1.48593e-05	0.002937558705501631
1.48595e-05	0.0029298395653405106
1.48598e-05	0.0029221204251793386
1.48600e-05	0.0029144012850181662
1.48603e-05	0.0029066821448570463
1.48605e-05	0.002898963004695874
1.48608e-05	0.002891243864534702
1.48610e-05	0.002883524724373582
1.48613e-05	0.0028758055842124097
1.48615e-05	0.002848547170486588
1.48618e-05	0.0028178080434211107
1.48620e-05	0.002787068916355425
1.48623e-05	0.0027563297892897395
1.48625e-05	0.0027255906622242624
1.48628e-05	0.0026948515351585766
1.48630e-05	0.002664112408092891
1.48633e-05	0.0026333732810274136
1.48635e-05	0.002602634153961728
1.48638e-05	0.0025718950268960425
1.48640e-05	0.002541155899830565
1.48643e-05	0.002502346975172406
1.48645e-05	0.002462100502079288
1.48648e-05	0.0024218540289864423
1.48650e-05	0.0023816075558933244
1.48653e-05	0.0023413610828002065
1.48655e-05	0.0023011146097073614
1.48658e-05	0.0022608681366142434
1.48660e-05	0.0022237989487936434
1.48663e-05	0.002187295760481837
1.48665e-05	0.0021507925721697832
1.48668e-05	0.0021142893838577296
1.48670e-05	0.0020777861955459235
1.48673e-05	0.00204128300723387
1.48675e-05	0.002004779818921816
1.48678e-05	0.001981376063688475
1.48680e-05	0.0019603058328475347
1.48683e-05	0.0019392356020065938
1.48685e-05	0.0019181653711656532
1.48688e-05	0.0018970951403248554
1.48690e-05	0.0018760249094839146
1.48693e-05	0.0018549546786429739
1.48695e-05	0.001833884447802176
1.48698e-05	0.0018128142169612353
1.48700e-05	0.0017917439861202947
1.48703e-05	0.0017761137115920903
1.48705e-05	0.0017706398631597842
1.48708e-05	0.0017651660147274782
1.48710e-05	0.0017596921662952094
1.48713e-05	0.0017542183178629034
1.48715e-05	0.0017487444694305973
1.48718e-05	0.0017432706209983284
1.48720e-05	0.0017377967725660224
1.48723e-05	0.0017323229241337163
1.48725e-05	0.0017268490757014474
1.48728e-05	0.0017213752272691415
1.48730e-05	0.0017237518319994465
1.48733e-05	0.0017275269112928943
1.48735e-05	0.0017313019905863677
1.48738e-05	0.0017350770698798409
1.48740e-05	0.0017388521491732887
1.48743e-05	0.001742627228466762
1.48745e-05	0.0017464023077602352
1.48748e-05	0.001750177387053683
1.48750e-05	0.0017539524663471564
1.48753e-05	0.0017586134528502194
1.48755e-05	0.0017649284326182943
1.48758e-05	0.0017712434123864117
1.48760e-05	0.0017775583921545294
1.48763e-05	0.001783873371922604
1.48765e-05	0.0017901883516907217
1.48768e-05	0.0017965033314588394
1.48770e-05	0.0018028183112269568
1.48773e-05	0.0018091332909950318
1.48775e-05	0.0018154482707631494
1.48778e-05	0.0018224115419000376
1.48780e-05	0.0018294902992349558
1.48783e-05	0.001836569056569922
1.48785e-05	0.0018436478139048883
1.48788e-05	0.0018507265712398066
1.48790e-05	0.0018578053285747728
1.48793e-05	0.001864884085909739
1.48795e-05	0.0018719628432446573
1.48798e-05	0.0018790416005796235
1.48800e-05	0.0018861203579145897
1.48803e-05	0.0018931991152495078
1.48805e-05	0.001900277872584474
1.48808e-05	0.0019073566299194402
1.48810e-05	0.0019144353872543585
1.48813e-05	0.0019215141445893247
1.48815e-05	0.001928592901924291
1.48818e-05	0.0019410859001281794
1.48820e-05	0.0019545433876400936
1.48823e-05	0.001968000875152008
1.48825e-05	0.001981458362663831
1.48828e-05	0.0019949158501757452
1.48830e-05	0.0020083733376876594
1.48833e-05	0.0020218308251994826
1.48835e-05	0.002035288312711397
1.48838e-05	0.002048745800223311
1.48840e-05	0.0020622032877351338
1.48843e-05	0.002075660775247048
1.48845e-05	0.002089118262758962
1.48848e-05	0.0021025757502707854
1.48850e-05	0.0021160332377826996
1.48853e-05	0.002129490725294614
1.48855e-05	0.002142948212806528
1.48858e-05	0.0021560953070581933
1.48860e-05	0.002169187108058686
1.48863e-05	0.0021822789090591792
1.48865e-05	0.0021953707100595835
1.48868e-05	0.002208462511060076
1.48870e-05	0.0022215543120605694
1.48873e-05	0.0022346461130609736
1.48875e-05	0.002246045814357608
1.48878e-05	0.002257144086125616
1.48880e-05	0.002268242357893549
1.48883e-05	0.002279340629661557
1.48885e-05	0.0022904389014295648
1.48888e-05	0.0023015371731974978
1.48890e-05	0.002312635444965506
1.48893e-05	0.0023332875937014876
1.48895e-05	0.0023556416637985442
1.48898e-05	0.0023779957338957523
1.48900e-05	0.0024003498039929603
1.48903e-05	0.0024227038740900165
1.48905e-05	0.0024450579441872245
1.48908e-05	0.0024674120142844326
1.48910e-05	0.0024897660843814892
1.48913e-05	0.0025121201544786973
1.48915e-05	0.0025344742245759053
1.48918e-05	0.002556828294672962
1.48920e-05	0.00259249152322897
1.48923e-05	0.002630525636522314
1.48925e-05	0.0026685597498154008
1.48928e-05	0.002706593863108745
1.48930e-05	0.0027446279764020893
1.48933e-05	0.0027826620896951757
1.48935e-05	0.0028206962029885202
1.48938e-05	0.0028587303162818647
1.48940e-05	0.0028967644295752088
1.48943e-05	0.002934798542868295
1.48945e-05	0.0029728326561616397
1.48948e-05	0.003013920798833334
1.48950e-05	0.003055552984290326
1.48953e-05	0.0030971851697476002
1.48955e-05	0.0031388173552048745
1.48958e-05	0.003180449540661867
1.48960e-05	0.0032220817261191413
1.48963e-05	0.0032637139115764156
1.48965e-05	0.003305346097033408
1.48968e-05	0.0033377746547755614
1.48970e-05	0.0033685636843272314
1.48973e-05	0.0033993527138786927
1.48975e-05	0.0034301417434303627
1.48978e-05	0.0034609307729820326
1.48980e-05	0.003491719802533494
1.48983e-05	0.003522508832085164
1.48985e-05	0.003553297861636834
1.48988e-05	0.0035617836309549756
1.48990e-05	0.003566296312157436
1.48993e-05	0.0035708089933598965
1.48995e-05	0.0035753216745623264
1.48998e-05	0.003579834355764787
1.49000e-05	0.0035843470369672477
1.49003e-05	0.0035888597181696776
1.49005e-05	0.0035933723993721383
1.49008e-05	0.003597885080574599
1.49010e-05	0.003602397761777029
1.49013e-05	0.0036069104429794895
1.49015e-05	0.0035872854233530644
1.49018e-05	0.003563360529568945
1.49020e-05	0.0035394356357846633
1.49023e-05	0.003515510742000382
1.49025e-05	0.0034915858482161004
1.49028e-05	0.003467660954431981
1.49030e-05	0.0034437360606476993
1.49033e-05	0.0034198111668634176
1.49035e-05	0.003395886273079298
1.49038e-05	0.003371961379295017
1.49040e-05	0.0033480364855107353
1.49043e-05	0.003313887458296154
1.49045e-05	0.0032779171106731234
1.49048e-05	0.003241946763050093
1.49050e-05	0.0032059764154273064
1.49053e-05	0.003170006067804276
1.49055e-05	0.0031340357201812457
1.49058e-05	0.003098065372558459
1.49060e-05	0.003063310127496141
1.49063e-05	0.003030823485095717
1.49065e-05	0.0029983368426955135
1.49068e-05	0.00296585020029509
1.49070e-05	0.0029333635578946663
1.49073e-05	0.0029008769154944625
1.49075e-05	0.002868390273094039
1.49078e-05	0.0028359036306936153
1.49080e-05	0.0028181105401177127
1.49083e-05	0.0028029349492051945
1.49085e-05	0.0027877593582926762
1.49088e-05	0.0027725837673802612
1.49090e-05	0.002757408176467743
1.49093e-05	0.002742232585555225
1.49095e-05	0.0027270569946428094
1.49098e-05	0.002711881403730291
1.49100e-05	0.002696705812817773
1.49103e-05	0.002681530221905358
1.49105e-05	0.0026663546309928397
1.49108e-05	0.0026511790400803215
1.49110e-05	0.0026519405312328925
1.49113e-05	0.0026555410437088894
1.49115e-05	0.0026591415561849105
1.49118e-05	0.0026627420686609316
1.49120e-05	0.0026663425811369284
1.49123e-05	0.0026699430936129496
1.49125e-05	0.0026735436060889707
1.49128e-05	0.0026771441185649675
1.49130e-05	0.0026807446310409887
1.49133e-05	0.0026843451435170098
1.49135e-05	0.0026879456559930066
1.49138e-05	0.0026915461684690277
1.49140e-05	0.0027026116746597722
1.49143e-05	0.0027150069899240887
1.49145e-05	0.0027274023051884894
1.49148e-05	0.00273979762045289
1.49150e-05	0.002752192935717207
1.49153e-05	0.0027645882509816076
1.49155e-05	0.002776983566246008
1.49158e-05	0.0027893788815103247
1.49160e-05	0.002801774196774726
1.49163e-05	0.0028134910546721925
1.49165e-05	0.0028239412292139715
1.49168e-05	0.0028343914037558212
1.49170e-05	0.0028448415782976713
1.49173e-05	0.0028552917528394503
1.49175e-05	0.0028657419273813
1.49178e-05	0.0028761921019231497
1.49180e-05	0.0028866422764649287
1.49183e-05	0.0028970924510067788
1.49185e-05	0.0029075426255486285
1.49188e-05	0.0029064920714772288
1.49190e-05	0.002903392785169334
1.49193e-05	0.0029002934988614395
1.49195e-05	0.0028971942125535447
1.49198e-05	0.002894094926245671
1.49200e-05	0.0028909956399377763
1.49203e-05	0.0028878963536298815
1.49205e-05	0.002884797067322008
1.49208e-05	0.002881697781014113
1.49210e-05	0.0028785984947062183
1.49213e-05	0.0028754992083983447
1.49215e-05	0.00287239992209045
1.49218e-05	0.002856185253843141
1.49220e-05	0.0028376342200769266
1.49223e-05	0.0028190831863105863
1.49225e-05	0.002800532152544246
1.49228e-05	0.0027819811187780315
1.49230e-05	0.002763430085011691
1.49233e-05	0.002744879051245351
1.49235e-05	0.0027263280174791363
1.49238e-05	0.0027077769837127955
1.49240e-05	0.0026892259499464556
1.49243e-05	0.0026706749161802407
1.49245e-05	0.0026521238824139003
1.49248e-05	0.002630443677327424
1.49250e-05	0.0026082060437186156
1.49253e-05	0.002585968410109657
1.49255e-05	0.0025637307765006977
1.49258e-05	0.0025414931428918894
1.49260e-05	0.0025192555092829307
1.49263e-05	0.002497017875673972
1.49265e-05	0.0024747802420651637
1.49268e-05	0.0024525426084562045
1.49270e-05	0.0024303049748472458
1.49273e-05	0.0024080673412384375
1.49275e-05	0.002390498669318113
1.49278e-05	0.002373761723164743
1.49280e-05	0.0023570247770113733
1.49283e-05	0.002340287830858117
1.49285e-05	0.002323550884704747
1.49288e-05	0.0023068139385513772
1.49290e-05	0.002290076992398121
1.49293e-05	0.002273340046244751
1.49295e-05	0.0022566031000913816
1.49298e-05	0.002239866153938125
1.49300e-05	0.002223129207784755
1.49303e-05	0.0022040544063083142
1.49305e-05	0.0021845631408210346
1.49308e-05	0.0021650718753336226
1.49310e-05	0.002145580609846211
1.49313e-05	0.0021260893443589314
1.49315e-05	0.00210659807887152
1.49318e-05	0.002087106813384108
1.49320e-05	0.0020676155478968282
1.49323e-05	0.0020481242824094163
1.49325e-05	0.0020286330169220048
1.49328e-05	0.002009141751434725
1.49330e-05	0.001988430938706478
1.49333e-05	0.0019654432250741016
1.49335e-05	0.0019424555114418809
1.49338e-05	0.0019194677978095047
1.49340e-05	0.0018964800841771282
1.49343e-05	0.0018734923705449077
1.49345e-05	0.0018505046569125315
1.49348e-05	0.001827516943280155
1.49350e-05	0.0018045292296479346
1.49353e-05	0.0017815415160155584
1.49355e-05	0.001758553802383182
1.49358e-05	0.0017355660887509615
1.49360e-05	0.0017191314008521612
1.49363e-05	0.001703864064651826
1.49365e-05	0.0016885967284514906
1.49368e-05	0.001673329392251259
1.49370e-05	0.0016580620560509237
1.49373e-05	0.0016427947198505886
1.49375e-05	0.0016275273836503568
1.49378e-05	0.0016122600474500215
1.49380e-05	0.0015969927112496863
1.49383e-05	0.0015817253750494546
1.49385e-05	0.0015664580388491194
1.49388e-05	0.001551190702648784
1.49390e-05	0.0015359233664485523
1.49393e-05	0.0015206560302482171
1.49395e-05	0.001505388694047882
1.49398e-05	0.0014962483580438085
1.49400e-05	0.0014985471625845986
1.49403e-05	0.0015008459671253885
1.49405e-05	0.001503144771666163
1.49408e-05	0.0015054435762069528
1.49410e-05	0.0015077423807477429
1.49413e-05	0.0015100411852885173
1.49415e-05	0.0015123399898293072
1.49418e-05	0.0015146387943700973
1.49420e-05	0.0015169375989108717
1.49423e-05	0.0015192364034516616
1.49425e-05	0.0015215352079924517
1.49428e-05	0.001523834012533226
1.49430e-05	0.001526132817074016
1.49433e-05	0.0015284316216148059
1.49435e-05	0.0015307304261555803
1.49438e-05	0.0015405691217915136
1.49440e-05	0.0015517509686734196
1.49443e-05	0.00156293281555525
1.49445e-05	0.0015741146624371563
1.49448e-05	0.0015852965093190625
1.49450e-05	0.0015964783562009686
1.49453e-05	0.0016076602030827992
1.49455e-05	0.0016188420499647052
1.49458e-05	0.0016300238968466115
1.49460e-05	0.0016405392948824489
1.49463e-05	0.0016509359721587752
1.49465e-05	0.0016613326494351018
1.49468e-05	0.0016717293267113579
1.49470e-05	0.0016821260039876845
1.49473e-05	0.001692522681264011
1.49475e-05	0.0017029193585402671
1.49478e-05	0.0017133160358165937
1.49480e-05	0.0017237127130929203
1.49483e-05	0.001733859597471667
