Time(s)	Current(A)
1.47500e-05	-0.0010794890962355695
1.47503e-05	-0.0010673738701083622
1.47505e-05	-0.001051483086876233
1.47508e-05	-0.0010342119425606326
1.47510e-05	-0.0010169407982450322
1.47513e-05	-0.0009996696539295489
1.47515e-05	-0.0009823985096139485
1.47518e-05	-0.0009651273652983481
1.47520e-05	-0.0009452686684514103
1.47523e-05	-0.0009244639504698433
1.47525e-05	-0.0009036592324882764
1.47528e-05	-0.0008828545145068503
1.47530e-05	-0.0008620497965252834
1.47533e-05	-0.0008412450785437164
1.47535e-05	-0.0008206045627850429
1.47538e-05	-0.0008000240801158682
1.47540e-05	-0.0007794435974466936
1.47543e-05	-0.0007602573489317256
1.47545e-05	-0.0007415808388510305
1.47548e-05	-0.0007229043287703353
1.47550e-05	-0.0007065703821299365
1.47553e-05	-0.000691092887482831
1.47555e-05	-0.0006756153928357254
1.47558e-05	-0.0006633442815422268
1.47560e-05	-0.0006522454387847831
1.47563e-05	-0.0006411465960273396
1.47565e-05	-0.0006330378832764406
1.47568e-05	-0.0006260223758410145
1.47570e-05	-0.0006214763592971989
1.47573e-05	-0.0006178332000082735
1.47575e-05	-0.0006167218906622802
1.47578e-05	-0.0006165362373277961
1.47580e-05	-0.0006188874635794765
1.47583e-05	-0.0006221661847033992
1.47585e-05	-0.0006278575574880435
1.47588e-05	-0.0006344310068426845
1.47590e-05	-0.0006437925124724274
1.47593e-05	-0.0006541733443299496
1.47595e-05	-0.000664554176187472
1.47598e-05	-0.0006779433882681553
1.47600e-05	-0.000692432478027843
1.47603e-05	-0.0007069215677875305
1.47605e-05	-0.0007247617070796739
1.47608e-05	-0.0007438270055301636
1.47610e-05	-0.0007628923039806535
1.47613e-05	-0.0007819576024310142
1.47615e-05	-0.000801022900881504
1.47618e-05	-0.0008200881993319938
1.47620e-05	-0.0008412589931089297
1.47623e-05	-0.0008631995656842853
1.47625e-05	-0.0008851401382596409
1.47628e-05	-0.0009070807108348478
1.47630e-05	-0.0009290212834102033
1.47633e-05	-0.0009509618559855589
1.47635e-05	-0.0009722365158734775
1.47638e-05	-0.0009932677150130203
1.47640e-05	-0.0010142989141525632
1.47643e-05	-0.0010353301132919636
1.47645e-05	-0.0010539370137369586
1.47648e-05	-0.001071657579402472
1.47650e-05	-0.001089378145067865
1.47653e-05	-0.0011070987107333783
1.47655e-05	-0.0011224125068635164
1.47658e-05	-0.0011368463769555507
1.47660e-05	-0.0011512802470474873
1.47663e-05	-0.0011672587717254006
1.47665e-05	-0.001183802029241278
1.47668e-05	-0.0012003452867570435
1.47670e-05	-0.001216888544272921
1.47673e-05	-0.0012334318017887984
1.47675e-05	-0.0012499750593045638
1.47678e-05	-0.0012665183168204413
1.47680e-05	-0.0012830615743363188
1.47683e-05	-0.001302995834369559
1.47685e-05	-0.0013241698605570684
1.47688e-05	-0.0013453438867445777
1.47690e-05	-0.0013665179129319434
1.47693e-05	-0.0013876919391194527
1.47695e-05	-0.001408865965306962
1.47698e-05	-0.001430039991494328
1.47700e-05	-0.0014512140176818373
1.47703e-05	-0.0014756407261832482
1.47705e-05	-0.0015012566303345915
1.47708e-05	-0.0015268725344861082
1.47710e-05	-0.001552488438637625
1.47713e-05	-0.0015781043427889683
1.47715e-05	-0.001603720246940485
1.47718e-05	-0.0016293361510920019
1.47720e-05	-0.001654952055243345
1.47723e-05	-0.001680383752945593
1.47725e-05	-0.0017052066085329841
1.47728e-05	-0.0017300294641202072
1.47730e-05	-0.0017548523197075986
1.47733e-05	-0.0017796751752949898
1.47735e-05	-0.0018044980308822129
1.47738e-05	-0.0018293208864696043
1.47740e-05	-0.0018541437420569954
1.47743e-05	-0.0018789665976443868
1.47745e-05	-0.0018971995819204186
1.47748e-05	-0.0019130232788628515
1.47750e-05	-0.0019288469758052846
1.47753e-05	-0.0019446706727476103
1.47755e-05	-0.0019604943696900435
1.47758e-05	-0.001976318066632477
1.47760e-05	-0.0019921417635748026
1.47763e-05	-0.0020079654605172355
1.47765e-05	-0.0020237891574596684
1.47768e-05	-0.0020396128544019946
1.47770e-05	-0.0020554365513444275
1.47773e-05	-0.0020692871126080834
1.47775e-05	-0.002076616034132113
1.47778e-05	-0.0020839449556561917
1.47780e-05	-0.0020912738771802705
1.47783e-05	-0.0020986027987043
1.47785e-05	-0.002105931720228379
1.47788e-05	-0.002113260641752458
1.47790e-05	-0.002120589563276487
1.47793e-05	-0.002127918484800566
1.47795e-05	-0.002135247406324645
1.47798e-05	-0.002142576327848674
1.47800e-05	-0.0021499052493727535
1.47803e-05	-0.0021542412945955943
1.47805e-05	-0.0021574831304438536
1.47808e-05	-0.002160724966292135
1.47810e-05	-0.002163966802140416
1.47813e-05	-0.0021672086379886752
1.47815e-05	-0.0021704504738369566
1.47818e-05	-0.002173692309685238
1.47820e-05	-0.0021769341455334973
1.47823e-05	-0.0021801759813817787
1.47825e-05	-0.0021829685004069684
1.47828e-05	-0.002184275930250796
1.47830e-05	-0.0021855833600946143
1.47833e-05	-0.0021868907899384414
1.47835e-05	-0.002188198219782269
1.47838e-05	-0.0021895056496260873
1.47840e-05	-0.0021908130794699144
1.47843e-05	-0.002192120509313742
1.47845e-05	-0.0021934279391575603
1.47848e-05	-0.0021947353690013873
1.47850e-05	-0.0021955690970850254
1.47853e-05	-0.0021962296376210684
1.47855e-05	-0.0021968901781571157
1.47858e-05	-0.0021952849922893185
1.47860e-05	-0.0021928514464018595
1.47863e-05	-0.0021904179005143836
1.47865e-05	-0.0021814222899244526
1.47868e-05	-0.0021700275582241095
1.47870e-05	-0.002158632826523689
1.47873e-05	-0.0021472380948232687
1.47875e-05	-0.0021358433631229255
1.47878e-05	-0.002124448631422505
1.47880e-05	-0.0021035923167365515
1.47883e-05	-0.002079276803687126
1.47885e-05	-0.002054961290637536
1.47888e-05	-0.0020306457775879456
1.47890e-05	-0.00200633026453852
1.47893e-05	-0.00198201475148893
1.47895e-05	-0.0019486665309808335
1.47898e-05	-0.0019120159109793143
1.47900e-05	-0.001875365290977547
1.47903e-05	-0.0018387146709757797
1.47905e-05	-0.0018020640509742605
1.47908e-05	-0.0017654134309724933
1.47910e-05	-0.001728762810970726
1.47913e-05	-0.0016866887863456156
1.47915e-05	-0.001642631939984839
1.47918e-05	-0.001598575093623764
1.47920e-05	-0.0015545182472626888
1.47923e-05	-0.0015104614009019122
1.47925e-05	-0.001466404554540837
1.47928e-05	-0.001422347708179762
1.47930e-05	-0.0013779997757838083
1.47933e-05	-0.001333545420990975
1.47935e-05	-0.001290254405628035
1.47938e-05	-0.0012473887125248034
1.47940e-05	-0.0012061796901288347
1.47943e-05	-0.0011655763541820363
1.47945e-05	-0.001128099808193998
1.47948e-05	-0.0010917664310313826
1.47950e-05	-0.001055433053868767
1.47953e-05	-0.0010234356838291648
1.47955e-05	-0.00099302357798574
1.47958e-05	-0.0009665659865091682
1.47960e-05	-0.0009415541837186512
1.47963e-05	-0.0009203482863869228
1.47965e-05	-0.0009005338456391999
1.47968e-05	-0.0008847236615774699
1.47970e-05	-0.0008703774522227713
1.47973e-05	-0.0008602735764375567
1.47975e-05	-0.0008517207173659436
1.47978e-05	-0.0008473505607546305
1.47980e-05	-0.0008445096194484173
1.47983e-05	-0.000845480018173295
1.47985e-05	-0.0008478438603868294
1.47988e-05	-0.0008538651483358092
1.47990e-05	-0.0008612236153093126
1.47993e-05	-0.0008721104409460166
1.47995e-05	-0.0008842872507784703
1.47998e-05	-0.0009003688255546451
1.48000e-05	-0.0009178780003981556
1.48003e-05	-0.0009353871752417848
1.48005e-05	-0.0009566669059613982
1.48008e-05	-0.0009793251692943865
1.48010e-05	-0.0010019834326275283
1.48013e-05	-0.0010284700359016556
1.48015e-05	-0.0010563562979097661
1.48018e-05	-0.0010842425599180657
1.48020e-05	-0.001112128821926365
1.48023e-05	-0.0011400150839344756
1.48025e-05	-0.001167901345942775
1.48028e-05	-0.001196955678655447
1.48030e-05	-0.0012264370634032192
1.48033e-05	-0.0012559184481511915
1.48035e-05	-0.0012853998328991635
1.48038e-05	-0.0013148812176469358
1.48040e-05	-0.0013443626023949078
1.48043e-05	-0.0013715296834789427
1.48045e-05	-0.0013978506444723324
1.48048e-05	-0.0014241716054659004
1.48050e-05	-0.0014471115663975847
1.48053e-05	-0.001468815418117135
1.48055e-05	-0.0014905192698368322
1.48058e-05	-0.0015065915124370139
1.48060e-05	-0.0015206048127762999
1.48063e-05	-0.0015346181131156808
1.48065e-05	-0.001541317203970341
1.48068e-05	-0.0015453421861122835
1.48070e-05	-0.0015493671682542535
1.48073e-05	-0.0015460999917766385
1.48075e-05	-0.0015401667684844338
1.48078e-05	-0.0015342335451921888
1.48080e-05	-0.0015204165408392576
1.48083e-05	-0.001503717189779326
1.48085e-05	-0.0014870178387195077
1.48088e-05	-0.0014629387507324777
1.48090e-05	-0.0014361615968977771
1.48093e-05	-0.001409384443063258
1.48095e-05	-0.0013761751143534192
1.48098e-05	-0.0013406141528511254
1.48100e-05	-0.0013050531913490727
1.48103e-05	-0.001263775315704881
1.48105e-05	-0.0012204073098902293
1.48108e-05	-0.0011770393040758716
1.48110e-05	-0.0011300642199986294
1.48113e-05	-0.001081770371476622
1.48115e-05	-0.001031431887733299
1.48118e-05	-0.0009803458759249334
1.48120e-05	-0.0009277731783008185
1.48123e-05	-0.000874656941487812
1.48125e-05	-0.0008208539878770226
1.48128e-05	-0.0007667999674386793
1.48130e-05	-0.000712987774804696
1.48133e-05	-0.0006592639955305453
1.48135e-05	-0.000606679238639795
1.48138e-05	-0.000554510913584758
1.48140e-05	-0.0005042813028744366
1.48143e-05	-0.0004547604950680341
1.48145e-05	-0.000407278227237924
1.48148e-05	-0.0003622439637524227
1.48150e-05	-0.0003197929253455408
1.48153e-05	-0.0002802774429890498
1.48155e-05	-0.00024394558911710834
1.48158e-05	-0.00021060859166458035
1.48160e-05	-0.00017969314323143678
1.48163e-05	-0.0001508549371718076
1.48165e-05	-0.00012414050716052293
1.48168e-05	-9.971157960492248e-05
1.48170e-05	-7.773517319588901e-05
1.48173e-05	-5.837827167618644e-05
1.48175e-05	-4.1742521579388506e-05
1.48178e-05	-2.7655927484899428e-05
1.48180e-05	-1.570564493350976e-05
1.48183e-05	-5.622318262796718e-06
1.48185e-05	2.618582341579512e-06
1.48188e-05	8.969434226742743e-06
1.48190e-05	1.3379302453868508e-05
1.48193e-05	1.5797289552573106e-05
1.48195e-05	1.621342406443327e-05
1.48198e-05	1.4789142069709462e-05
1.48200e-05	1.1836725710394633e-05
1.48203e-05	7.578554517102001e-06
1.48205e-05	2.083640130689957e-06
1.48208e-05	-4.624205403296764e-06
1.48210e-05	-1.2523243209385348e-05
1.48213e-05	-2.1591711869734974e-05
1.48215e-05	-3.17822116911621e-05
1.48218e-05	-4.2939986545724985e-05
1.48220e-05	-5.481579961710223e-05
1.48223e-05	-6.72167485607311e-05
1.48225e-05	-8.01711697333749e-05
1.48228e-05	-9.328085191941593e-05
1.48230e-05	-0.00010685053156448941
1.48233e-05	-0.00012058838840178937
1.48235e-05	-0.00013432624523908933
1.48238e-05	-0.00014788355706516168
1.48240e-05	-0.00016137486080274743
1.48243e-05	-0.00017486616454033316
1.48245e-05	-0.0001874607816356462
1.48248e-05	-0.00019972756595995693
1.48250e-05	-0.0002112338618341987
1.48253e-05	-0.00022186175924388213
1.48255e-05	-0.0002315344276232634
1.48258e-05	-0.0002398409638647116
1.48260e-05	-0.00024621001492556064
1.48263e-05	-0.00025031261346457356
1.48265e-05	-0.00025211639411058096
1.48268e-05	-0.00025167113921338276
1.48270e-05	-0.0002490301903657473
1.48273e-05	-0.0002442468125049368
1.48275e-05	-0.0002373334278615996
1.48278e-05	-0.00022814586167008773
1.48280e-05	-0.0002164394772272445
1.48283e-05	-0.00020212145722459947
1.48285e-05	-0.0001852848395662605
1.48288e-05	-0.0001660740461078856
1.48290e-05	-0.00014463575236329552
1.48293e-05	-0.00012111660967008395
1.48295e-05	-9.563761928444719e-05
1.48298e-05	-6.822171619821389e-05
1.48300e-05	-3.882891671279465e-05
1.48303e-05	-7.514337584899921e-06
1.48305e-05	2.5550493816713538e-05
1.48308e-05	6.0161865571925985e-05
1.48310e-05	9.611468474588609e-05
1.48313e-05	0.00013320386534981592
1.48315e-05	0.00017153007325687735
1.48318e-05	0.00021020269019500642
1.48320e-05	0.00025002055618627043
1.48323e-05	0.0002902571305120187
1.48325e-05	0.0003304937048380397
1.48328e-05	0.0003709829619042534
1.48330e-05	0.00041156460094517123
1.48333e-05	0.00045152846766300113
1.48335e-05	0.0004912664739707446
1.48338e-05	0.0005297900239028482
1.48340e-05	0.0005678695629836719
1.48343e-05	0.000604149960319644
1.48345e-05	0.0006397725831373988
1.48348e-05	0.0006728398914494496
1.48350e-05	0.000704972964995442
1.48353e-05	0.0007338677581590572
1.48355e-05	0.0007615786210822829
1.48358e-05	0.000787429134059956
1.48360e-05	0.0008125994945189708
1.48363e-05	0.0008382555068141612
1.48365e-05	0.0008640890756603472
1.48368e-05	0.0008899226445065332
1.48370e-05	0.00091536755264476
1.48373e-05	0.0009406703646361833
1.48375e-05	0.0009659731766276067
1.48378e-05	0.000991537544274846
1.48380e-05	0.0010171975378761879
1.48383e-05	0.00104285753147753
1.48385e-05	0.0010702989565121654
1.48388e-05	0.0010983916810937248
1.48390e-05	0.0011264844056752845
1.48393e-05	0.0011545771302566535
1.48395e-05	0.0011830866815947577
1.48398e-05	0.0012129739354272435
1.48400e-05	0.001242861189259527
1.48403e-05	0.001272748443092013
1.48405e-05	0.001302635696924499
1.48408e-05	0.0013336957906233923
1.48410e-05	0.0013651846799860553
1.48413e-05	0.0013966695626837727
1.48415e-05	0.0014281529805260965
1.48418e-05	0.0014595170082780714
1.48420e-05	0.0014909199067106328
1.48423e-05	0.0015224217702160792
1.48425e-05	0.0015538784558394023
1.48428e-05	0.001585093409665153
1.48430e-05	0.0016158678484044962
1.48433e-05	0.0016460030511028705
1.48435e-05	0.0016753284287091383
1.48438e-05	0.0017037870833798096
1.48440e-05	0.0017314120096462114
1.48443e-05	0.0017581574654832676
1.48445e-05	0.0017838631908376416
1.48448e-05	0.001808336461554339
1.48450e-05	0.0018313831280440207
1.48453e-05	0.0018528088390533267
1.48455e-05	0.0018722324874578546
1.48458e-05	0.0018885527319560604
1.48460e-05	0.0019001892093827575
1.48463e-05	0.0019062297232091108
1.48465e-05	0.001906597331250292
1.48468e-05	0.0019014472680265605
1.48470e-05	0.0018909450449585295
1.48473e-05	0.0018752561193854634
1.48475e-05	0.0018544287864663003
1.48478e-05	0.0018280603493860616
1.48480e-05	0.001793047021150152
1.48483e-05	0.0017554299128311973
1.48485e-05	0.0017087550137935906
1.48488e-05	0.0016587685446998804
1.48490e-05	0.0016008605580161673
1.48493e-05	0.0015400564279727449
1.48495e-05	0.001472201036489953
1.48498e-05	0.0014017676713088646
1.48500e-05	0.0013241988621014123
1.48503e-05	0.0012440213016527658
1.48505e-05	0.0011576417222372755
1.48508e-05	0.0010689946560874148
1.48510e-05	0.0009756983667581802
1.48513e-05	0.0008807022999941832
1.48515e-05	0.0007824431243128856
1.48518e-05	0.0006829909409645015
1.48520e-05	0.0005807259296394776
1.48523e-05	0.0004774325354352485
1.48525e-05	0.00037413914123171936
1.48528e-05	0.0002702886607597355
1.48530e-05	0.00016623450697928258
1.48533e-05	6.320710371585578e-05
1.48535e-05	-3.818380637713508e-05
1.48538e-05	-0.00013752770272936125
1.48540e-05	-0.0002344180250950455
1.48543e-05	-0.00032834531697706494
1.48545e-05	-0.00041867163195073926
1.48548e-05	-0.0005047233486093028
1.48550e-05	-0.000585825372439365
1.48553e-05	-0.0006613027040290194
1.48555e-05	-0.0007306242236630257
1.48558e-05	-0.0007938757491819123
1.48560e-05	-0.0008517219168029173
1.48563e-05	-0.0009045701271262002
1.48565e-05	-0.0009523195936756722
1.48568e-05	-0.0009947162883293529
1.48570e-05	-0.0010314992849304533
1.48573e-05	-0.0010624074721658381
1.48575e-05	-0.0010872700623829807
1.48578e-05	-0.0011044449188174063
1.48580e-05	-0.0011194044622952007
1.48583e-05	-0.001127297229164028
1.48585e-05	-0.0011326063499159274
1.48588e-05	-0.0011309824910936048
1.48590e-05	-0.001126823902967289
1.48593e-05	-0.001115755608022609
1.48595e-05	-0.0011021610924009928
1.48598e-05	-0.0010823654955430272
1.48600e-05	-0.0010603027547886911
1.48603e-05	-0.0010332768217699217
1.48605e-05	-0.0010044363227711605
1.48608e-05	-0.0009711899415520401
1.48610e-05	-0.0009363327494755337
1.48613e-05	-0.0008975579555005789
1.48615e-05	-0.0008573508682054492
1.48618e-05	-0.0008141435987245857
1.48620e-05	-0.0007698394488007395
1.48623e-05	-0.0007237838534947337
1.48625e-05	-0.0006770879216804392
1.48628e-05	-0.0006294629550877359
1.48630e-05	-0.000581498329095855
1.48633e-05	-0.0005333835916971733
1.48635e-05	-0.00048521397287547036
1.48638e-05	-0.0004379419535616715
1.48640e-05	-0.0003909981007676329
1.48643e-05	-0.00034554096575638163
1.48645e-05	-0.00030195921410009456
1.48648e-05	-0.0002604345942691612
1.48650e-05	-0.0002212926965428112
1.48653e-05	-0.00018485905998431987
1.48655e-05	-0.00015143757531338253
1.48658e-05	-0.00012122237288188814
1.48660e-05	-9.426347490152899e-05
1.48663e-05	-7.057967985018985e-05
1.48665e-05	-5.022969853201196e-05
1.48668e-05	-3.328831032189784e-05
1.48670e-05	-1.9831197940884475e-05
1.48673e-05	-9.934018156847677e-06
1.48675e-05	-3.6588651260343486e-06
1.48678e-05	-9.990694447335888e-07
1.48680e-05	-1.8576815855392631e-06
1.48683e-05	-6.118200166832812e-06
1.48685e-05	-1.3689130456353664e-05
1.48688e-05	-2.448904447620934e-05
1.48690e-05	-3.843708149467988e-05
1.48693e-05	-5.5452363198748065e-05
1.48695e-05	-7.544552021453083e-05
1.48698e-05	-9.828412182077536e-05
1.48700e-05	-0.00012377917808828316
1.48703e-05	-0.0001517294708321007
1.48705e-05	-0.00018194946396664043
1.48708e-05	-0.0002142599356358035
1.48710e-05	-0.00024848201759325895
1.48713e-05	-0.00028443688032157394
1.48715e-05	-0.0003224084264071954
1.48718e-05	-0.00036095236075869884
1.48720e-05	-0.0004012172465044011
1.48723e-05	-0.00044211132001618534
1.48725e-05	-0.00048300539352769253
1.48728e-05	-0.0005245317741790649
1.48730e-05	-0.0005662893292366699
1.48733e-05	-0.0006080468842939921
1.48735e-05	-0.0006488166401544034
1.48738e-05	-0.0006892252520728925
1.48740e-05	-0.0007296338639911079
1.48743e-05	-0.0007672422291462645
1.48745e-05	-0.0008038268111708287
1.48748e-05	-0.0008404113931951452
1.48750e-05	-0.0008732955928149286
1.48753e-05	-0.0009048269155623976
1.48755e-05	-0.0009323854879368709
1.48758e-05	-0.0009584916044540075
1.48760e-05	-0.000984597720971144
1.48763e-05	-0.0010082322224984844
1.48765e-05	-0.001030963090187339
1.48768e-05	-0.0010536939578761934
1.48770e-05	-0.0010734701232889875
1.48773e-05	-0.0010921660359231938
1.48775e-05	-0.001110861948557527
1.48778e-05	-0.0011251591682362836
1.48780e-05	-0.00113784820548469
1.48783e-05	-0.0011505372427331822
1.48785e-05	-0.0011632262799816744
1.48788e-05	-0.0011759153172300806
1.48790e-05	-0.0011886043544785728
1.48793e-05	-0.001201293391727065
1.48795e-05	-0.0012139824289754712
1.48798e-05	-0.0012266714662239634
1.48800e-05	-0.0012379762731555895
1.48803e-05	-0.0012447058997915156
1.48805e-05	-0.0012514355264274875
1.48808e-05	-0.0012581651530634594
1.48810e-05	-0.0012648947796993857
1.48813e-05	-0.0012716244063353574
1.48815e-05	-0.0012783540329713292
1.48818e-05	-0.0012850836596072555
1.48820e-05	-0.0012918132862432272
1.48823e-05	-0.001298542912879199
1.48825e-05	-0.0013032570120650858
1.48828e-05	-0.0013072342251199813
1.48830e-05	-0.0013112114381748767
1.48833e-05	-0.001315188651229745
1.48835e-05	-0.0013191658642846403
1.48838e-05	-0.0013228439599199168
1.48840e-05	-0.0013255334078511665
1.48843e-05	-0.0013282228557824345
1.48845e-05	-0.0013309123037137025
1.48848e-05	-0.0013336017516449522
1.48850e-05	-0.0013362911995762202
1.48853e-05	-0.0013381203641034526
1.48855e-05	-0.0013396350050506425
1.48858e-05	-0.001341149645997822
1.48860e-05	-0.001338379144579269
1.48863e-05	-0.0013340419753492749
1.48865e-05	-0.00132970480611931
1.48868e-05	-0.001320005127894566
1.48870e-05	-0.0013083448916501393
1.48873e-05	-0.0012966846554057915
1.48875e-05	-0.0012798336568540364
1.48878e-05	-0.001261084891663594
1.48880e-05	-0.0012423361264732788
1.48883e-05	-0.0012170573214898776
1.48885e-05	-0.0011893911038423847
1.48888e-05	-0.0011617248861950794
1.48890e-05	-0.001128553084673564
1.48893e-05	-0.0010933684162965222
1.48895e-05	-0.0010581837479197186
1.48898e-05	-0.0010180758970967849
1.48900e-05	-0.0009761681080663621
1.48903e-05	-0.0009342603190362233
1.48905e-05	-0.0008879501713785707
1.48908e-05	-0.0008400305011034687
1.48910e-05	-0.0007921108308286914
1.48913e-05	-0.000741857562384402
1.48915e-05	-0.0006907511196870558
1.48918e-05	-0.0006383982205756583
1.48920e-05	-0.0005855896112502196
1.48923e-05	-0.0005319271880188579
1.48925e-05	-0.0004779526064861121
1.48928e-05	-0.00042401872030784215
1.48930e-05	-0.00037009971253898765
1.48933e-05	-0.0003171609310865868
1.48935e-05	-0.0002645805248957594
