Time(s)	Current(A)
3.50000e-06	0.0031843747556562956
3.50025e-06	0.003176627186638367
3.50050e-06	0.0031688796176204256
3.50075e-06	0.0031611320486024837
3.50100e-06	0.0031533844795845556
3.50125e-06	0.0031456369105666137
3.50150e-06	0.003137889341548672
3.50175e-06	0.0031301417725307307
3.50200e-06	0.0031223942035128022
3.50225e-06	0.0031146466344948607
3.50250e-06	0.0031068990654769192
3.50275e-06	0.0030991514964589907
3.50300e-06	0.0030914039274410493
3.50325e-06	0.0030836563584231078
3.50350e-06	0.0030759087894051663
3.50375e-06	0.0030681612203872378
3.50400e-06	0.0030604136513692963
3.50425e-06	0.0030516906299731714
3.50450e-06	0.0030407280564558777
3.50475e-06	0.003029765482938566
3.50500e-06	0.003018802909421254
3.50525e-06	0.0030078403359039604
3.50550e-06	0.002996877762386649
3.50575e-06	0.002985915188869337
3.50600e-06	0.002974952615352025
3.50625e-06	0.0029639900418347315
3.50650e-06	0.0029530274683174196
3.50675e-06	0.0029420648948001076
3.50700e-06	0.0029311023212828143
3.50725e-06	0.0029201397477655023
3.50750e-06	0.0029091771742481903
3.50775e-06	0.0028982146007308783
3.50800e-06	0.002887252027213585
3.50825e-06	0.002876289453696273
3.50850e-06	0.002865326880178961
3.50875e-06	0.0028543643066616677
3.50900e-06	0.00284661153183932
3.50925e-06	0.002846228170057422
3.50950e-06	0.002845844808275524
3.50975e-06	0.0028454614464936256
3.51000e-06	0.0028450780847117272
3.51025e-06	0.002844694722929829
3.51050e-06	0.0028443113611479314
3.51075e-06	0.0028439279993660326
3.51100e-06	0.0028435446375841343
3.51125e-06	0.002843161275802237
3.51150e-06	0.0028427779140203385
3.51175e-06	0.00284239455223844
3.51200e-06	0.002842011190456542
3.51225e-06	0.002841627828674644
3.51250e-06	0.0028412444668927455
3.51275e-06	0.002840861105110847
3.51300e-06	0.0028404777433289493
3.51325e-06	0.002840094381547051
3.51350e-06	0.0028397110197651526
3.51375e-06	0.0028403232442463858
3.51400e-06	0.002843221246462575
3.51425e-06	0.0028461192486787645
3.51450e-06	0.002849017250894954
3.51475e-06	0.0028519152531111384
3.51500e-06	0.0028548132553273277
3.51525e-06	0.002857711257543517
3.51550e-06	0.0028606092597597012
3.51575e-06	0.0028635072619758906
3.51600e-06	0.00286640526419208
3.51625e-06	0.0028693032664082693
3.51650e-06	0.002872201268624454
3.51675e-06	0.002875099270840643
3.51700e-06	0.0028779972730568325
3.51725e-06	0.0028808952752730167
3.51750e-06	0.002883793277489206
3.51775e-06	0.0028866912797053954
3.51800e-06	0.00288958928192158
3.51825e-06	0.0028924872841377693
3.51850e-06	0.0028953852863539587
3.51875e-06	0.002898283288570148
3.51900e-06	0.002901181290786332
3.51925e-06	0.0029040792930025215
3.51950e-06	0.002906977295218711
3.51975e-06	0.0029098752974348954
3.52000e-06	0.0029127732996510848
3.52025e-06	0.002915671301867274
3.52050e-06	0.0029185693040834635
3.52075e-06	0.0029214673062996476
3.52100e-06	0.002924365308515837
3.52125e-06	0.0029272633107320263
3.52150e-06	0.002930161312948211
3.52175e-06	0.0029330593151644002
3.52200e-06	0.0029359573173805896
3.52225e-06	0.002938855319596774
3.52250e-06	0.0029417533218129635
3.52275e-06	0.0029446513240291524
3.52300e-06	0.0029475493262453418
3.52325e-06	0.0029504473284615263
3.52350e-06	0.0029533453306777157
3.52375e-06	0.002956243332893905
3.52400e-06	0.0029591413351100896
3.52425e-06	0.002962039337326279
3.52450e-06	0.002964937339542468
3.52475e-06	0.0029678353417586572
3.52500e-06	0.002970733343974842
3.52525e-06	0.002973631346191031
3.52550e-06	0.0029765293484072205
3.52575e-06	0.002979427350623405
3.52600e-06	0.0029796958862471756
3.52625e-06	0.0029793209905058385
3.52650e-06	0.0029789460947645015
3.52675e-06	0.002978571199023164
3.52700e-06	0.002978196303281827
3.52725e-06	0.0029778214075404895
3.52750e-06	0.002977446511799153
3.52775e-06	0.0029770716160578154
3.52800e-06	0.002976696720316478
3.52825e-06	0.0029763218245751413
3.52850e-06	0.002975946928833804
3.52875e-06	0.0029755720330924664
3.52900e-06	0.0029751971373511298
3.52925e-06	0.0029748222416097923
3.52950e-06	0.002974447345868455
3.52975e-06	0.0029740724501271174
3.53000e-06	0.0029736975543857807
3.53025e-06	0.0029733226586444433
3.53050e-06	0.002972947762903106
3.53075e-06	0.002972572867161769
3.53100e-06	0.0029721979714204317
3.53125e-06	0.0029718230756790942
3.53150e-06	0.002971448179937757
3.53175e-06	0.00297107328419642
3.53200e-06	0.002970698388455083
3.53225e-06	0.0029703234927137456
3.53250e-06	0.0029699485969724086
3.53275e-06	0.0029695737012310716
3.53300e-06	0.002969198805489734
3.53325e-06	0.002968823909748397
3.53350e-06	0.00296844901400706
3.53375e-06	0.0029680741182657225
3.53400e-06	0.002967699222524385
3.53425e-06	0.0029673243267830485
3.53450e-06	0.002966949431041711
3.53475e-06	0.0029665745353003735
3.53500e-06	0.002966199639559037
3.53525e-06	0.0029658247438176994
3.53550e-06	0.002965449848076362
3.53575e-06	0.0029650749523350245
3.53600e-06	0.002964700056593688
3.53625e-06	0.0029643251608523504
3.53650e-06	0.002963950265111013
3.53675e-06	0.0029635753693696763
3.53700e-06	0.002963200473628339
3.53725e-06	0.002962825577887002
3.53750e-06	0.0029624506821456648
3.53775e-06	0.0029620757864043273
3.53800e-06	0.002963486811893656
3.53825e-06	0.002968998154088231
3.53850e-06	0.002974509496282796
3.53875e-06	0.0029800208384773708
3.53900e-06	0.0029855321806719452
3.53925e-06	0.0029910435228665106
3.53950e-06	0.002996554865061085
3.53975e-06	0.0030020662072556595
3.54000e-06	0.0030075775494502344
3.54025e-06	0.0030130888916447994
3.54050e-06	0.0030186002338393743
3.54075e-06	0.0030241115760339487
3.54100e-06	0.003029622918228514
3.54125e-06	0.0030351342604230886
3.54150e-06	0.003040645602617663
3.54175e-06	0.003054159062037511
3.54200e-06	0.0030696306422510274
3.54225e-06	0.0030851022224645443
3.54250e-06	0.003100573802678061
3.54275e-06	0.003116045382891551
3.54300e-06	0.0031315169631050675
3.54325e-06	0.0031469885433185844
3.54350e-06	0.0031624601235320745
3.54375e-06	0.003177931703745591
3.54400e-06	0.0031934032839591076
3.54425e-06	0.0032088748641726245
3.54450e-06	0.0032243464443861146
3.54475e-06	0.003239818024599631
3.54500e-06	0.0032552896048131477
3.54525e-06	0.003270401845532289
3.54550e-06	0.00328468907465167
3.54575e-06	0.0032989763037710516
3.54600e-06	0.0033132635328904083
3.54625e-06	0.0033275507620097893
3.54650e-06	0.0033418379911291708
3.54675e-06	0.0033561252202485518
3.54700e-06	0.0033704124493679085
3.54725e-06	0.0033846996784872895
3.54750e-06	0.003398986907606671
3.54775e-06	0.0034132741367260276
3.54800e-06	0.0034233894069737114
3.54825e-06	0.003423926229772289
3.54850e-06	0.0034244630525708665
3.54875e-06	0.003424999875369443
3.54900e-06	0.0034255366981680202
3.54925e-06	0.0034260735209665975
3.54950e-06	0.003426610343765174
3.54975e-06	0.0034271471665637517
3.55000e-06	0.003427683989362329
3.55025e-06	0.0034282208121609054
3.55050e-06	0.0034287576349594827
3.55075e-06	0.0034243049424485922
3.55100e-06	0.0034083967654378773
3.55125e-06	0.0033924885884271893
3.55150e-06	0.0033765804114164744
3.55175e-06	0.0033606722344057594
3.55200e-06	0.0033447640573950714
3.55225e-06	0.003328855880384356
3.55250e-06	0.003312947703373641
3.55275e-06	0.003297039526362926
3.55300e-06	0.003281131349352238
3.55325e-06	0.003262753271452744
3.55350e-06	0.003238704520232637
3.55375e-06	0.003214655769012571
3.55400e-06	0.003190607017792464
3.55425e-06	0.003166558266572357
3.55450e-06	0.0031425095153522903
3.55475e-06	0.0031184607641321833
3.55500e-06	0.0030944120129120763
3.55525e-06	0.0030703632616919693
3.55550e-06	0.0030463145104719026
3.55575e-06	0.0030238923887321136
3.55600e-06	0.003005204863970969
3.55625e-06	0.0029865173392098557
3.55650e-06	0.0029678298144487107
3.55675e-06	0.0029491422896875657
3.55700e-06	0.0029304547649264207
3.55725e-06	0.0029117672401653073
3.55750e-06	0.0028930797154041623
3.55775e-06	0.002874392190643018
3.55800e-06	0.0028557046658819044
3.55825e-06	0.0028370171411207594
3.55850e-06	0.0028183296163596144
3.55875e-06	0.002799642091598501
3.55900e-06	0.0027837201083288194
3.55925e-06	0.0027741475629757826
3.55950e-06	0.002764575017622746
3.55975e-06	0.0027550024722697254
3.56000e-06	0.002745429926916689
3.56025e-06	0.002735857381563652
3.56050e-06	0.002726284836210632
3.56075e-06	0.002716712290857595
3.56100e-06	0.0027071397455045586
3.56125e-06	0.0026975672001515218
3.56150e-06	0.0026879946547985014
3.56175e-06	0.0026784221094454646
3.56200e-06	0.002668849564092428
3.56225e-06	0.002660479108806351
3.56250e-06	0.0026548685456694366
3.56275e-06	0.0026492579825325227
3.56300e-06	0.002643647419395618
3.56325e-06	0.0026380368562587036
3.56350e-06	0.0026324262931217896
3.56375e-06	0.0026268157299848753
3.56400e-06	0.0026212051668479705
3.56425e-06	0.002615594603711056
3.56450e-06	0.0026099840405741422
3.56475e-06	0.0026043734774372374
3.56500e-06	0.002598762914300323
3.56525e-06	0.002593152351163409
3.56550e-06	0.002587541788026495
3.56575e-06	0.002584760436274394
3.56600e-06	0.002582671393505959
3.56625e-06	0.0025805823507375246
3.56650e-06	0.0025784933079690936
3.56675e-06	0.0025764042652006588
3.56700e-06	0.0025743152224322243
3.56725e-06	0.002572226179663793
3.56750e-06	0.0025701371368953584
3.56775e-06	0.002568048094126924
3.56800e-06	0.002565959051358489
3.56825e-06	0.002563870008590058
3.56850e-06	0.0025617809658216232
3.56875e-06	0.002559691923053189
3.56900e-06	0.002561384485264994
3.56925e-06	0.0025717592770232106
3.56950e-06	0.0025821340687814274
3.56975e-06	0.0025925088605396438
3.57000e-06	0.002602883652297843
3.57025e-06	0.00261325844405606
3.57050e-06	0.0026236332358142763
3.57075e-06	0.0026340080275724757
3.57100e-06	0.0026443828193306925
3.57125e-06	0.0026547576110889093
3.57150e-06	0.0026651324028471083
3.57175e-06	0.002675507194605325
3.57200e-06	0.002695459188498479
3.57225e-06	0.0027177547269964884
3.57250e-06	0.00274005026549446
3.57275e-06	0.002762345803992469
3.57300e-06	0.0027846413424904787
3.57325e-06	0.0028069368809884505
3.57350e-06	0.0028292324194864596
3.57375e-06	0.002851527957984469
3.57400e-06	0.0028738234964824786
3.57425e-06	0.00289611903498045
3.57450e-06	0.0029184145734784594
3.57475e-06	0.002941374761329398
3.57500e-06	0.0029658609251297656
3.57525e-06	0.002990347088930175
3.57550e-06	0.003014833252730584
3.57575e-06	0.0030393194165309516
3.57600e-06	0.003063805580331361
3.57625e-06	0.003085237637880207
3.57650e-06	0.0031059223545952643
3.57675e-06	0.0031266070713102867
3.57700e-06	0.0031472917880253437
3.57725e-06	0.0031679765047404012
3.57750e-06	0.003187408791866739
3.57775e-06	0.0032004836007585406
3.57800e-06	0.0032055640212824243
3.57825e-06	0.0032106444418063076
3.57850e-06	0.0032157248623301826
3.57875e-06	0.0032208052828540663
3.57900e-06	0.00322588570337795
3.57925e-06	0.003230966123901825
3.57950e-06	0.0032360465444257087
3.57975e-06	0.0032411269649495924
3.58000e-06	0.0032462073854734675
3.58025e-06	0.003251287805997351
3.58050e-06	0.0032563682265212344
3.58075e-06	0.003261448647045118
3.58100e-06	0.0032514040848004872
3.58125e-06	0.003237658434151414
3.58150e-06	0.0032239127835023405
3.58175e-06	0.00321016713285329
3.58200e-06	0.0031964214822042167
3.58225e-06	0.003182675831555143
3.58250e-06	0.0031689301809060696
3.58275e-06	0.0031551845302570194
3.58300e-06	0.003141438879607946
3.58325e-06	0.0031276932289588722
3.58350e-06	0.003113947578309822
3.58375e-06	0.0031002019276607485
3.58400e-06	0.00308453442141781
3.58425e-06	0.003064454505229971
3.58450e-06	0.003044374589042099
3.58475e-06	0.003024294672854226
3.58500e-06	0.0030042147566663535
3.58525e-06	0.002984134840478515
3.58550e-06	0.0029640549242906425
3.58575e-06	0.0029439750081027703
3.58600e-06	0.0029238950919149315
3.58625e-06	0.0029038151757270593
3.58650e-06	0.0028837352595391867
3.58675e-06	0.002863655343351314
3.58700e-06	0.0028458371452921376
3.58725e-06	0.002833211651406809
3.58750e-06	0.0028205861575214806
3.58775e-06	0.0028079606636361738
3.58800e-06	0.0027953351697508452
3.58825e-06	0.0027827096758655167
3.58850e-06	0.00277008418198021
3.58875e-06	0.0027574586880948814
3.58900e-06	0.0027448331942095533
3.58925e-06	0.0027322077003242248
3.58950e-06	0.002719582206438918
3.58975e-06	0.0027069567125535894
3.59000e-06	0.002696900715711281
3.59025e-06	0.0026927440561256
3.59050e-06	0.0026885873965399125
3.59075e-06	0.002684430736954225
3.59100e-06	0.0026802740773685368
3.59125e-06	0.002676117417782856
3.59150e-06	0.0026719607581971684
3.59175e-06	0.0026678040986114807
3.59200e-06	0.0026636474390258
3.59225e-06	0.0026594907794401123
3.59250e-06	0.0026553341198544246
3.59275e-06	0.002651177460268744
3.59300e-06	0.0026470208006830562
3.59325e-06	0.002642864141097368
3.59350e-06	0.0026387074815116805
3.59375e-06	0.0026345508219259997
3.59400e-06	0.002630394162340312
3.59425e-06	0.0026262375027546244
3.59450e-06	0.0026220808431689437
3.59475e-06	0.002617924183583256
3.59500e-06	0.0026137675239975683
3.59525e-06	0.0026096108644118802
3.59550e-06	0.0026054542048261995
3.59575e-06	0.002601297545240512
3.59600e-06	0.002597140885654824
3.59625e-06	0.0025929842260691434
3.59650e-06	0.0025888275664834558
3.59675e-06	0.0025895888626607734
3.59700e-06	0.002591553584278604
3.59725e-06	0.002593518305896438
3.59750e-06	0.0025954830275142717
3.59775e-06	0.002597447749132106
3.59800e-06	0.002599412470749936
3.59825e-06	0.0026013771923677704
3.59850e-06	0.002603341913985604
3.59875e-06	0.002605306635603435
3.59900e-06	0.0026072713572212686
3.59925e-06	0.002609236078839103
3.59950e-06	0.0026112008004569366
3.59975e-06	0.0026131655220747673
3.60000e-06	0.002615130243692601
3.60025e-06	0.0026170949653104352
3.60050e-06	0.0026190596869282655
3.60075e-06	0.0026210244085460997
3.60100e-06	0.0026229891301639335
3.60125e-06	0.0026249538517817642
3.60150e-06	0.002626918573399598
3.60175e-06	0.002628883295017432
3.60200e-06	0.002630848016635266
3.60225e-06	0.0026328127382530967
3.60250e-06	0.0026347774598709304
3.60275e-06	0.0026367421814887646
3.60300e-06	0.002638706903106595
3.60325e-06	0.0026417928629187625
3.60350e-06	0.0026474530861541876
3.60375e-06	0.0026531133093896033
3.60400e-06	0.002658773532625029
3.60425e-06	0.002664433755860454
3.60450e-06	0.002670093979095879
3.60475e-06	0.0026757542023312948
3.60500e-06	0.00268141442556672
3.60525e-06	0.002687074648802145
3.60550e-06	0.0026927348720375607
3.60575e-06	0.002698395095272986
3.60600e-06	0.002704055318508411
3.60625e-06	0.002709715541743836
3.60650e-06	0.0027153757649792517
3.60675e-06	0.002721035988214677
3.60700e-06	0.002726696211450102
3.60725e-06	0.0027323564346855176
3.60750e-06	0.0027380166579209432
3.60775e-06	0.0027436768811563684
3.60800e-06	0.002749113666620562
3.60825e-06	0.0027540374587843547
3.60850e-06	0.0027589612509481467
3.60875e-06	0.002763885043111939
3.60900e-06	0.0027688088352757234
3.60925e-06	0.002773732627439516
3.60950e-06	0.0027786564196033083
3.60975e-06	0.002783580211767092
3.61000e-06	0.0027885040039308845
3.61025e-06	0.002793427796094677
3.61050e-06	0.0027983515882584694
3.61075e-06	0.0028032753804222536
3.61100e-06	0.002808199172586046
3.61125e-06	0.0028131229647498385
3.61150e-06	0.0028180467569136223
3.61175e-06	0.0028229705490774148
3.61200e-06	0.0028278943412412072
3.61225e-06	0.0028328181334049914
3.61250e-06	0.002837741925568784
3.61275e-06	0.0028426153327998607
3.61300e-06	0.0028473730606953253
3.61325e-06	0.0028521307885907817
3.61350e-06	0.0028568885164862463
3.61375e-06	0.002861646244381711
3.61400e-06	0.002866403972277167
3.61425e-06	0.002871161700172632
3.61450e-06	0.0028759194280680964
3.61475e-06	0.0028806771559635605
3.61500e-06	0.0028854348838590173
3.61525e-06	0.0028901926117544815
3.61550e-06	0.002894950339649946
3.61575e-06	0.0028997080675454024
3.61600e-06	0.002904465795440867
3.61625e-06	0.0029092235233363316
3.61650e-06	0.002913981251231788
3.61675e-06	0.0029187389791272525
3.61700e-06	0.002923496707022717
3.61725e-06	0.0029282544349181817
3.61750e-06	0.002933012162813638
3.61775e-06	0.0029377698907091026
3.61800e-06	0.002942527618604567
3.61825e-06	0.0029472853465000236
3.61850e-06	0.002952043074395488
3.61875e-06	0.0029568008022909523
3.61900e-06	0.002961558530186417
3.61925e-06	0.0029663162580818732
3.61950e-06	0.002971073985977338
3.61975e-06	0.002974076854007333
3.62000e-06	0.0029730507194684714
3.62025e-06	0.002972024584929608
3.62050e-06	0.002970998450390744
3.62075e-06	0.0029699723158518824
3.62100e-06	0.002968946181313019
3.62125e-06	0.0029679200467741555
3.62150e-06	0.002966893912235292
3.62175e-06	0.0029658677776964303
3.62200e-06	0.002964841643157567
3.62225e-06	0.002963815508618703
3.62250e-06	0.0029627893740798413
3.62275e-06	0.002961763239540978
3.62300e-06	0.0029607371050021144
3.62325e-06	0.002959710970463251
3.62350e-06	0.0029586848359243892
3.62375e-06	0.0029576587013855258
3.62400e-06	0.002956632566846662
3.62425e-06	0.0029556064323078
3.62450e-06	0.0029545802977689367
3.62475e-06	0.0029535541632300733
3.62500e-06	0.0029525280286912116
3.62525e-06	0.002951501894152348
3.62550e-06	0.0029504757596134847
3.62575e-06	0.002949449625074621
3.62600e-06	0.002948423490535759
3.62625e-06	0.0029473973559968956
3.62650e-06	0.002946371221458032
3.62675e-06	0.0029454443366963975
3.62700e-06	0.0029447453206183512
3.62725e-06	0.002944046304540305
3.62750e-06	0.0029433472884622582
3.62775e-06	0.0029426482723842132
3.62800e-06	0.002941949256306167
3.62825e-06	0.0029412502402281202
3.62850e-06	0.0029405512241500753
3.62875e-06	0.002939852208072029
3.62900e-06	0.0029391531919939822
3.62925e-06	0.0029384541759159373
3.62950e-06	0.0029410015059558622
3.62975e-06	0.002945406184673594
3.63000e-06	0.0029498108633913256
3.63025e-06	0.00295421554210905
3.63050e-06	0.0029586202208267813
3.63075e-06	0.002963024899544513
3.63100e-06	0.0029674295782622373
3.63125e-06	0.002971834256979969
3.63150e-06	0.0029762389356977007
3.63175e-06	0.0029806436144154324
3.63200e-06	0.0029850482931331563
3.63225e-06	0.0020438929381492972
3.63250e-06	-0.0029315325067278235
3.63275e-06	-0.007234622089726793
3.63300e-06	-0.007347339742024421
3.63325e-06	-0.005536616982471635
3.63350e-06	-0.0017034757463323558
3.63375e-06	0.002113725558350172
3.63400e-06	0.003193655158122796
3.63425e-06	0.0021714555476079634
3.63450e-06	-0.00030373547048711223
3.63475e-06	-0.0029097920790711663
3.63500e-06	-0.0035746307552562413
3.63525e-06	-0.0022532750373304884
3.63550e-06	2.2384261301873227e-05
3.63575e-06	0.0022930309583373176
3.63600e-06	0.0032686948967468694
3.63625e-06	0.002716868420855786
3.63650e-06	0.0014629590609197708
3.63675e-06	0.00022388222756708
3.63700e-06	-0.00021391097694106124
3.63725e-06	0.0006300932255245204
3.63750e-06	0.0019524422281282502
3.63775e-06	0.0032204813778561733
3.63800e-06	0.003696784735431495
3.63825e-06	0.003323760167479076
3.63850e-06	0.0024842032657534812
3.63875e-06	0.001601350118830606
3.63900e-06	0.0014125640582964157
3.63925e-06	0.0019503064171419579
3.63950e-06	0.0027760956022002932
3.63975e-06	0.003567898074088959
3.64000e-06	0.0038638083185840374
3.64025e-06	0.0036277910599701387
3.64050e-06	0.0030996603870553593
3.64075e-06	0.0025445391564853227
3.64100e-06	0.0024242856807552044
3.64125e-06	0.002759186882538019
3.64150e-06	0.0032745436513831397
3.64175e-06	0.003768621159399599
3.64200e-06	0.003952091513190351
3.64225e-06	0.003802406215994317
3.64250e-06	0.003469802101925655
3.64275e-06	0.003120355128623407
3.64300e-06	0.003043355571801482
3.64325e-06	0.0032514797284910056
3.64350e-06	0.003572632728517104
3.64375e-06	0.003880438156891485
3.64400e-06	0.0039936651205324854
3.64425e-06	0.0038982024674883422
3.64450e-06	0.0036881673066941427
3.64475e-06	0.0034675900208172745
3.64500e-06	0.0034176684517562886
3.64525e-06	0.0035463217829698065
3.64550e-06	0.00374573327943467
3.64575e-06	0.003936732601881088
3.64600e-06	0.004005797904693278
3.64625e-06	0.003944095597282543
3.64650e-06	0.003810584302379203
3.64675e-06	0.0036704268986155423
3.64700e-06	0.0036371159083546005
3.64725e-06	0.003715596262165987
3.64750e-06	0.003838319425401956
3.64775e-06	0.003955568680860201
3.64800e-06	0.0039957875869836585
3.64825e-06	0.003952867303794943
3.64850e-06	0.003863471364736798
