Time(s)	Current(A)
7.50000e-07	0.0004869492285895914
7.50250e-07	0.00058185001911395
7.50500e-07	0.0006767508096383085
7.50750e-07	0.000769851641475255
7.51000e-07	0.0008621410714093295
7.51250e-07	0.0009544305013433649
7.51500e-07	0.001043004317222702
7.51750e-07	0.0011299031744846876
7.52000e-07	0.0012121397671554508
7.52250e-07	0.0012922746613886478
7.52500e-07	0.0013660457433961415
7.52750e-07	0.0014369480877012098
7.53000e-07	0.0014997664959482161
7.53250e-07	0.0015589407532788126
7.53500e-07	0.001608579483100878
7.53750e-07	0.0016539197002851534
7.54000e-07	0.001689187044347393
7.54250e-07	0.0017199136461827332
7.54500e-07	0.0017403191439313236
7.54750e-07	0.0017560719996196571
7.55000e-07	0.0017612493014429415
7.55250e-07	0.001761659257998755
7.55500e-07	0.001751407399727157
7.55750e-07	0.0017363493106794866
7.56000e-07	0.0017111161192390541
7.56250e-07	0.0016812961017224411
7.56500e-07	0.0016419685212976675
7.56750e-07	0.0015983550343744086
7.57000e-07	0.0015458976322539261
7.57250e-07	0.001489453488843154
7.57500e-07	0.0014249345570484838
7.57750e-07	0.0013567755980099282
7.58000e-07	0.0012816695421545906
7.58250e-07	0.0012034318102135794
7.58500e-07	0.0011194879356725318
7.58750e-07	0.0010329717937810523
7.59000e-07	0.0009419878957381621
7.59250e-07	0.0008489899815580025
7.59500e-07	0.000752353178771351
7.59750e-07	0.0006540760043693643
7.60000e-07	0.0005557988299673359
7.60250e-07	0.0004562688722289657
7.60500e-07	0.00035617417331619116
7.60750e-07	0.00025607947440341666
7.61000e-07	0.00015701486511929215
7.61250e-07	5.959433808954379e-05
7.61500e-07	-3.570080525859044e-05
7.61750e-07	-0.00012824296604411578
7.62000e-07	-0.0002173782942971837
7.62250e-07	-0.00030244577790304074
7.62500e-07	-0.00038278405336241616
7.62750e-07	-0.00045773178981433986
7.63000e-07	-0.0005266909925142378
7.63250e-07	-0.000589456197055211
7.63500e-07	-0.0006463288549640429
7.63750e-07	-0.0006975826133940201
7.64000e-07	-0.0007431570754531301
7.64250e-07	-0.0007828500310792217
7.64500e-07	-0.0008164467199874097
7.64750e-07	-0.0008437323920814897
7.65000e-07	-0.000864532021378136
7.65250e-07	-0.0008789165151908358
7.65500e-07	-0.0008872742145512433
7.65750e-07	-0.0008899761169068095
7.66000e-07	-0.0008871838645727486
7.66250e-07	-0.0008789703390906235
7.66500e-07	-0.0008654005002100136
7.66750e-07	-0.000846539387923263
7.67000e-07	-0.0008224769135281439
7.67250e-07	-0.000793456935594045
7.67500e-07	-0.0007599222709081756
7.67750e-07	-0.0007223047589566047
7.68000e-07	-0.0006809050780488303
7.68250e-07	-0.0006359683085139836
7.68500e-07	-0.0005877345970746727
7.68750e-07	-0.000536444068418467
7.69000e-07	-0.0004815504300801687
7.69250e-07	-0.00042545026484156476
7.69500e-07	-0.00036682920322052623
7.69750e-07	-0.0003070717487833225
7.70000e-07	-0.0002459280355443099
7.70250e-07	-0.00018415941183509693
7.70500e-07	-0.00012197199115358577
7.70750e-07	-5.9595781327842785e-05
7.71000e-07	2.4823316756524387e-06
7.71250e-07	6.383702886309652e-05
7.71500e-07	0.0001239777151438497
7.71750e-07	0.00018241101035458232
7.72000e-07	0.00023869504677578196
7.72250e-07	0.00029240982691616275
7.72500e-07	0.00034313732793734994
7.72750e-07	0.00039049586143010914
7.73000e-07	0.0004348370782207932
7.73250e-07	0.0004615847456047561
7.73500e-07	0.0005025628400771021
7.73750e-07	0.0005375927363798474
7.74000e-07	0.0005669686255216109
7.74250e-07	0.0005924025130615214
7.74500e-07	0.0006139722080595802
7.74750e-07	0.0006317056901638738
7.75000e-07	0.000645705516696965
7.75250e-07	0.0006559560019292477
7.75500e-07	0.000662723191467629
7.75750e-07	0.0006662055944116111
7.76000e-07	0.0006656771091131577
7.76250e-07	0.0006617124689130196
7.76500e-07	0.0006557221273426359
7.76750e-07	0.0006454751634039377
7.77000e-07	0.0006333789899979021
7.77250e-07	0.0006173970580600437
7.77500e-07	0.0005998474947665517
7.77750e-07	0.0005790038552623872
7.78000e-07	0.0005567121131614325
7.78250e-07	0.0005313774615794895
7.78500e-07	0.0005048395222312443
7.78750e-07	0.00047577310474856277
7.79000e-07	0.00044574919968924057
7.79250e-07	0.00041371331838505846
7.79500e-07	0.00038091005031206445
7.79750e-07	0.00034649426633058224
7.80000e-07	0.00031207848234910004
7.80250e-07	0.0002772291978927559
7.80500e-07	0.00024146899544766912
7.80750e-07	0.00020570879300259748
7.81000e-07	0.0001701717509662371
7.81250e-07	0.00013468288644287544
7.81500e-07	9.954529636179235e-05
7.81750e-07	6.543950489254206e-05
7.82000e-07	3.231747094704103e-05
7.82250e-07	4.1614890548832294e-07
7.82500e-07	-3.001521577657732e-05
7.82750e-07	-5.8735103562131485e-05
7.83000e-07	-8.559946372427512e-05
7.83250e-07	-0.00011126047110904475
7.83500e-07	-0.00013720549654249527
7.83750e-07	-0.00016420823545128181
7.84000e-07	-0.000192704923260495
7.84250e-07	-0.0002223057380020655
7.84500e-07	-0.0002522618943731685
7.84750e-07	-0.00028315383743115433
7.85000e-07	-0.00031444314727644703
7.85250e-07	-0.0003461691073050031
7.85500e-07	-0.0003797404320953307
7.85750e-07	-0.0004152614097852153
7.86000e-07	-0.00045190165694997385
7.86250e-07	-0.0004908938339465178
7.86500e-07	-0.0005306484912488518
7.86750e-07	-0.0005720053544700054
7.87000e-07	-0.0006141853742246239
7.87250e-07	-0.0006580950993368436
7.87500e-07	-0.0007020048244490633
7.87750e-07	-0.0007474616322681483
7.88000e-07	-0.0007961693372592524
7.88250e-07	-0.0008448770422503565
7.88500e-07	-0.0008935847472414605
7.88750e-07	-0.0009422924522325647
7.89000e-07	-0.0009910001572236687
7.89250e-07	-0.0010413620077007325
7.89500e-07	-0.0010920809672909813
7.89750e-07	-0.00114279992688123
7.90000e-07	-0.001193518886471479
7.90250e-07	-0.0012442378460617279
7.90500e-07	-0.0012940867336804157
7.90750e-07	-0.0013421073321590107
7.91000e-07	-0.0013901279306376259
7.91250e-07	-0.0014381485291162413
7.91500e-07	-0.0014861691275948564
7.91750e-07	-0.001531712371722897
7.92000e-07	-0.0015720499314899473
7.92250e-07	-0.0016123874912570147
7.92500e-07	-0.0016527250510240822
7.92750e-07	-0.0016930626107911496
7.93000e-07	-0.0017302780647379334
7.93250e-07	-0.0017609330129426891
7.93500e-07	-0.0017883837608321969
7.93750e-07	-0.0018091014971658055
7.94000e-07	-0.0018263746055480604
7.94250e-07	-0.0018364094898742204
7.94500e-07	-0.0018430885411863003
7.94750e-07	-0.0018427159539487932
7.95000e-07	-0.0018389192717680489
7.95250e-07	-0.0018279275117041324
7.95500e-07	-0.0018131370888332776
7.95750e-07	-0.0017903645056541017
7.96000e-07	-0.0017639676963932085
7.96250e-07	-0.0017299552720993175
7.96500e-07	-0.0016926992518923544
7.96750e-07	-0.0016486274378470444
7.97000e-07	-0.0016015942159846202
7.97250e-07	-0.0015483381643697396
7.97500e-07	-0.0014922110576809356
7.97750e-07	-0.0014300509801761481
7.98000e-07	-0.0013654540437671215
7.98250e-07	-0.001295736516399947
7.98500e-07	-0.0012237875352846617
7.98750e-07	-0.001147149582696163
7.99000e-07	-0.0010705116301076645
7.99250e-07	-0.0009920998683607858
7.99500e-07	-0.0009099607873495699
7.99750e-07	-0.0008278217063383541
8.00000e-07	-0.0007451026335385905
8.00250e-07	-0.0006611648193898266
8.00500e-07	-0.0005772270052410984
8.00750e-07	-0.0004941927466773561
8.01000e-07	-0.000413057136636458
8.01250e-07	-0.00033192152659555985
8.01500e-07	-0.00025207683403189824
8.01750e-07	-0.0001758494430118726
8.02000e-07	-0.00010261498604473789
8.02250e-07	-3.295400631043713e-05
8.02500e-07	3.255306790637456e-05
8.02750e-07	9.332582091019491e-05
8.03000e-07	0.00014900960490557032
8.03250e-07	0.00020022423402249595
8.03500e-07	0.00024870574250117653
8.03750e-07	0.00029585323271742243
8.04000e-07	0.00034181348583954915
8.04250e-07	0.00038618476400046974
8.04500e-07	0.0004285646006638824
8.04750e-07	0.00046855057431391135
8.05000e-07	0.0005056201614011787
8.05250e-07	0.0005403578240462355
8.05500e-07	0.0005746321895809328
8.05750e-07	0.0006079330252201712
8.06000e-07	0.000640701379023211
8.06250e-07	0.0006723508245172136
8.06500e-07	0.0007040002700112296
8.06750e-07	0.0007338081797738191
8.07000e-07	0.0007597464558866077
8.07250e-07	0.0007856847319993964
8.07500e-07	0.000811623008112174
8.07750e-07	0.0008375612842249628
8.08000e-07	0.0008634995603377515
8.08250e-07	0.0008894378364505401
8.08500e-07	0.0009153761125633287
8.08750e-07	0.0009413143886761175
8.09000e-07	0.0009672526647888952
8.09250e-07	0.000993190940901684
8.09500e-07	0.0010134712347123712
8.09750e-07	0.001032530041622773
8.10000e-07	0.0010515888485331745
8.10250e-07	0.0010706476554435762
8.10500e-07	0.00108970646235397
8.10750e-07	0.0011087652692643715
8.11000e-07	0.0011278240761747732
8.11250e-07	0.001146882883085175
8.11500e-07	0.0011659416899955765
8.11750e-07	0.0011850004969059702
8.12000e-07	0.001202211311636335
8.12250e-07	0.0012155389257301552
8.12500e-07	0.0012288665398239754
8.12750e-07	0.0012406373490005248
8.13000e-07	0.0012491368316471093
8.13250e-07	0.0012576363142936902
8.13500e-07	0.001262907328636535
8.13750e-07	0.0012613943369064113
8.14000e-07	0.0012567447498841623
8.14250e-07	0.0012455042102775017
8.14500e-07	0.0012313321239286416
8.14750e-07	0.0012109999551409322
8.15000e-07	0.0011876891488273333
8.15250e-07	0.0011581193078373264
8.15500e-07	0.0011258817148299934
8.15750e-07	0.0010862052474498543
8.16000e-07	0.0010401546691190425
8.16250e-07	0.0009888041908033165
8.16500e-07	0.0009351591863686236
8.16750e-07	0.0008753147309628316
8.17000e-07	0.0008112585553525658
8.17250e-07	0.0007430745389498875
8.17500e-07	0.0006706273367357715
8.17750e-07	0.0005939225582051867
8.18000e-07	0.0005132975888070046
8.18250e-07	0.0004292266819907564
8.18500e-07	0.0003421842790161747
8.18750e-07	0.00025264482019228063
8.19000e-07	0.00016105004788185924
8.19250e-07	6.770564593459744e-05
8.19500e-07	-2.7219887847161647e-05
8.19750e-07	-0.00012352796202854866
8.20000e-07	-0.00022066105757936517
8.20250e-07	-0.00031779415313014055
8.20500e-07	-0.00041492724868095706
8.20750e-07	-0.0005112997103013777
8.21000e-07	-0.000606073845806227
8.21250e-07	-0.0006995528111488349
8.21500e-07	-0.0007903102251489438
8.21750e-07	-0.0008791919657499108
8.22000e-07	-0.0009641323389489712
8.22250e-07	-0.0010464391098640492
8.22500e-07	-0.0011232118713952234
8.22750e-07	-0.001196690380167994
8.23000e-07	-0.0012632466494709581
8.23250e-07	-0.0013275204891117318
8.23500e-07	-0.001386998241186331
8.23750e-07	-0.0014451205644756342
8.24000e-07	-0.001500394714499492
8.24250e-07	-0.00155566886452335
8.24500e-07	-0.0016084900895964658
8.24750e-07	-0.0016561569640002208
8.25000e-07	-0.0017038238384039757
8.25250e-07	-0.0017485533039605647
8.25500e-07	-0.0017871103689905037
8.25750e-07	-0.0018256674340204426
8.26000e-07	-0.0018642244990503653
8.26250e-07	-0.0019027815640803045
8.26500e-07	-0.0019413386291102434
8.26750e-07	-0.0019798956941401826
8.27000e-07	-0.0020184527591701213
8.27250e-07	-0.002057009824200044
8.27500e-07	-0.002092697648468255
8.27750e-07	-0.002122356314348816
8.28000e-07	-0.0021520149802293767
8.28250e-07	-0.0021816736461099375
8.28500e-07	-0.0022113323119904984
8.28750e-07	-0.0022409909778710467
8.29000e-07	-0.0022706496437516076
8.29250e-07	-0.0023003083096321685
8.29500e-07	-0.0023299669755127293
8.29750e-07	-0.002357768701705195
8.30000e-07	-0.0023816684257913215
8.30250e-07	-0.0024055681498774376
8.30500e-07	-0.002429467873963564
8.30750e-07	-0.00245336759804969
8.31000e-07	-0.0024772673221358167
8.31250e-07	-0.0025011670462219433
8.31500e-07	-0.0025250667703080594
8.31750e-07	-0.002543745779293517
8.32000e-07	-0.00256129770184332
8.32250e-07	-0.002578849624393124
8.32500e-07	-0.0025964015469429275
8.32750e-07	-0.002613953469492731
8.33000e-07	-0.002631505392042527
8.33250e-07	-0.0026490573145923307
8.33500e-07	-0.0026623715095529287
8.33750e-07	-0.0026667809338926604
8.34000e-07	-0.0026711903582323916
8.34250e-07	-0.002671703365879964
8.34500e-07	-0.002664028802203848
8.34750e-07	-0.0026563542385277293
8.35000e-07	-0.0026447550049404954
8.35250e-07	-0.002624908831316298
8.35500e-07	-0.0026050626576921
8.35750e-07	-0.002580643666795341
8.36000e-07	-0.002546615778666186
8.36250e-07	-0.0025125878905370314
8.36500e-07	-0.002474694566659105
8.36750e-07	-0.0024286787719597146
8.37000e-07	-0.0023826629772603237
8.37250e-07	-0.0023331395792107
8.37500e-07	-0.0022762456263989424
8.37750e-07	-0.0022193516735871843
8.38000e-07	-0.002158813631104348
8.38250e-07	-0.0020906182340700605
8.38500e-07	-0.002022422837035773
8.38750e-07	-0.0019542274400015146
8.39000e-07	-0.0018860320429672272
8.39250e-07	-0.0018156206576316085
8.39500e-07	-0.0017405527984885897
8.39750e-07	-0.001665484939345571
8.40000e-07	-0.001590417080202584
8.40250e-07	-0.0015153492210595652
8.40500e-07	-0.0014408185609642193
8.40750e-07	-0.0013674167214918658
8.41000e-07	-0.0012940148820195123
8.41250e-07	-0.0012206130425471589
8.41500e-07	-0.0011500265994324116
8.41750e-07	-0.0010853561710315524
8.42000e-07	-0.0010206857426306932
8.42250e-07	-0.0009560153142298339
8.42500e-07	-0.0008942114833256055
8.42750e-07	-0.0008399174784150278
8.43000e-07	-0.0007902947735845462
8.43250e-07	-0.0007452896343901425
8.43500e-07	-0.000704273063219074
8.43750e-07	-0.0006666934585288273
8.44000e-07	-0.000632534054215482
8.44250e-07	-0.000602023446729357
8.44500e-07	-0.0005753905836681227
8.44750e-07	-0.000552864457772672
8.45000e-07	-0.0005346073462521051
8.45250e-07	-0.0005204875921243264
8.45500e-07	-0.0005100131681871346
8.45750e-07	-0.0005027405508030394
8.46000e-07	-0.0004985613339821843
8.46250e-07	-0.0004975207431756796
8.46500e-07	-0.000499664215995107
8.46750e-07	-0.0005050372746341468
8.47000e-07	-0.0005136435755743832
8.47250e-07	-0.0005256797986929
8.47500e-07	-0.0005404008653838814
8.47750e-07	-0.0005565168440454386
8.48000e-07	-0.00057556396230317
8.48250e-07	-0.0005958934551305328
8.48500e-07	-0.0006189176118201669
8.48750e-07	-0.0006433591591818296
8.49000e-07	-0.0006707790808134441
8.49250e-07	-0.0006981990024450584
8.49500e-07	-0.0007268110722793395
8.49750e-07	-0.0007579282125948126
8.50000e-07	-0.0007890453529102724
8.50250e-07	-0.0008201624932257456
8.50500e-07	-0.0008512796335412187
8.50750e-07	-0.0008825314133329111
8.51000e-07	-0.000914066112124713
8.51250e-07	-0.0009456008109165016
8.51500e-07	-0.0009771355097083034
8.51750e-07	-0.0010086702085001053
8.52000e-07	-0.0010390361149167512
8.52250e-07	-0.0010669460286379352
8.52500e-07	-0.001094855942359119
8.52750e-07	-0.001121189181317327
8.53000e-07	-0.0011442093410809213
8.53250e-07	-0.001167229500844516
8.53500e-07	-0.001188340941703625
8.53750e-07	-0.0012054415763778563
8.54000e-07	-0.0012225422110520876
8.54250e-07	-0.0012376167470844203
8.54500e-07	-0.0012484338259579355
8.54750e-07	-0.0012592509048314506
8.55000e-07	-0.001267966272041738
8.55250e-07	-0.0012722652958512704
8.55500e-07	-0.0012765643196608009
8.55750e-07	-0.001278851759325342
8.56000e-07	-0.0012769122412585982
8.56250e-07	-0.0012749727231918541
8.56500e-07	-0.001271191815968737
8.56750e-07	-0.00126354158309488
8.57000e-07	-0.0012558913502210263
8.57250e-07	-0.001245859995843676
8.57500e-07	-0.001230825171950322
8.57750e-07	-0.001215790348056968
8.58000e-07	-0.001200755524163614
8.58250e-07	-0.00118572070027026
8.58500e-07	-0.0011706858763769123
8.58750e-07	-0.0011556510524835585
8.59000e-07	-0.0011357477201360047
8.59250e-07	-0.0011147933383181955
8.59500e-07	-0.0010938389565003862
8.59750e-07	-0.0010728845746825859
8.60000e-07	-0.0010519301928647768
8.60250e-07	-0.0010309758110469676
8.60500e-07	-0.0010102042361963299
8.60750e-07	-0.0009898167950768847
8.61000e-07	-0.0009694293539574395
8.61250e-07	-0.0009490419128380029
8.61500e-07	-0.0009286544717185577
8.61750e-07	-0.0009082670305991124
8.62000e-07	-0.0008878795894796672
8.62250e-07	-0.0008695659285544067
8.62500e-07	-0.0008556099184123316
8.62750e-07	-0.0008416539082702623
8.63000e-07	-0.0008276978981281872
8.63250e-07	-0.000813741887986112
8.63500e-07	-0.0007997858778440368
8.63750e-07	-0.0007858298677019616
8.64000e-07	-0.0007722149612857233
8.64250e-07	-0.000759316818836166
8.64500e-07	-0.0007464186763866086
8.64750e-07	-0.0007335205339370511
8.65000e-07	-0.0007206223914874938
8.65250e-07	-0.0007077242490379363
8.65500e-07	-0.0006948261065883843
8.65750e-07	-0.000681927964138827
8.66000e-07	-0.0006671706359274631
8.66250e-07	-0.000652011932997648
8.66500e-07	-0.0006368532300678329
8.66750e-07	-0.0006216945271380242
8.67000e-07	-0.0006065358242082091
8.67250e-07	-0.000591377121278394
8.67500e-07	-0.000576218418348579
8.67750e-07	-0.0005603046690151751
8.68000e-07	-0.0005428043346805301
8.68250e-07	-0.0005253040003458925
8.68500e-07	-0.0005078036660112474
8.68750e-07	-0.0004903033316766023
8.69000e-07	-0.0004728029973419572
8.69250e-07	-0.0004551057282839782
8.69500e-07	-0.0004373659435071531
8.69750e-07	-0.0004196261587303355
8.70000e-07	-0.00040188637395351036
8.70250e-07	-0.00038414658917668523
8.70500e-07	-0.0003667733082433839
8.70750e-07	-0.0003501701647457033
8.71000e-07	-0.0003335670212480297
8.71250e-07	-0.00031744293747918535
8.71500e-07	-0.0003023255057212137
8.71750e-07	-0.00028765444635687874
8.72000e-07	-0.00027392135284649686
8.72250e-07	-0.00026062947970897807
8.72500e-07	-0.0002486191942112459
8.72750e-07	-0.00023775337429894337
8.73000e-07	-0.0002282230492226047
8.73250e-07	-0.00022042706030386025
8.73500e-07	-0.00021496091138721536
8.73750e-07	-0.00021225598550558974
8.74000e-07	-0.00021240256125412484
8.74250e-07	-0.00021535325670749705
8.74500e-07	-0.00022106044813935077
8.74750e-07	-0.00022947651229868578
8.75000e-07	-0.00024058562862386631
8.75250e-07	-0.00025450212875279026
8.75500e-07	-0.0002714635158149973
8.75750e-07	-0.00029160448369172203
8.76000e-07	-0.00031484601211969357
8.76250e-07	-0.00034102289088991654
8.76500e-07	-0.00036996974265336274
8.76750e-07	-0.0004015212078790245
8.77000e-07	-0.00043553189140013894
8.77250e-07	-0.00047232619544813914
8.77500e-07	-0.0005115683743483065
8.77750e-07	-0.0005522483611879656
8.78000e-07	-0.0005959496252639005
8.78250e-07	-0.0006410145888857753
8.78500e-07	-0.0006889451051883609
8.78750e-07	-0.0007368756214909465
8.79000e-07	-0.0007861114477707233
8.79250e-07	-0.0008380901322668578
8.79500e-07	-0.0008900688167629703
8.79750e-07	-0.0009420475012591049
8.80000e-07	-0.0009940261857552394
8.80250e-07	-0.0010460395436327112
8.80500e-07	-0.0010981257609616172
8.80750e-07	-0.0011502119782905232
8.81000e-07	-0.0012022981956194073
8.81250e-07	-0.0012543844129483134
8.81500e-07	-0.0013050474513239807
8.81750e-07	-0.0013527199524682905
8.82000e-07	-0.0014003924536126005
8.82250e-07	-0.0014459901324504689
8.82500e-07	-0.0014872279707063313
8.82750e-07	-0.0015284658089621938
8.83000e-07	-0.0015663712813929866
8.83250e-07	-0.0015972744270638774
8.83500e-07	-0.0016281775727347682
8.83750e-07	-0.001659080718405646
8.84000e-07	-0.0016899838640765368
8.84250e-07	-0.0017208870097474276
8.84500e-07	-0.0017517901554183184
8.84750e-07	-0.0017826933010892092
8.85000e-07	-0.0018106043614279105
8.85250e-07	-0.0018322281291074586
8.85500e-07	-0.0018538518967870159
8.85750e-07	-0.001875475664466573
8.86000e-07	-0.0018970994321461303
8.86250e-07	-0.0019187231998256875
8.86500e-07	-0.0019403469675052356
8.86750e-07	-0.0019619707351847928
8.87000e-07	-0.0019813202532474486
8.87250e-07	-0.0019958908725375224
8.87500e-07	-0.002010461491827596
8.87750e-07	-0.0020250321111176697
8.88000e-07	-0.002039602730407737
8.88250e-07	-0.002054173349697811
8.88500e-07	-0.0020687439689878848
8.88750e-07	-0.002083314588277958
8.89000e-07	-0.002097885207568032
8.89250e-07	-0.002112455826858106
8.89500e-07	-0.0021270264461481733
8.89750e-07	-0.002141597065438247
8.90000e-07	-0.0021546670671803996
8.90250e-07	-0.002164583809357459
8.90500e-07	-0.002174500551534518
8.90750e-07	-0.002184417293711573
8.91000e-07	-0.0021943340358886324
8.91250e-07	-0.0022042507780656918
8.91500e-07	-0.0022141675202427507
8.91750e-07	-0.00222408426241981
8.92000e-07	-0.0022340010045968695
8.92250e-07	-0.0022439177467739246
8.92500e-07	-0.0022538344889509836
8.92750e-07	-0.002263751231128043
8.93000e-07	-0.0022722096104606506
8.93250e-07	-0.0022776035203719656
8.93500e-07	-0.00228299743028328
8.93750e-07	-0.002285384912412372
