Time(s)	Current(A)
5.50000e-06	0.006007929295724642
5.50025e-06	0.006000859818748166
5.50050e-06	0.00599379034177169
5.50075e-06	0.0059867208647951895
5.50100e-06	0.005979651387818714
5.50125e-06	0.005972581910842238
5.50150e-06	0.005965512433865738
5.50175e-06	0.005958442956889262
5.50200e-06	0.005951373479912786
5.50225e-06	0.005947302783861879
5.50250e-06	0.005953489435548707
5.50275e-06	0.005959676087235534
5.50300e-06	0.005965862738922382
5.50325e-06	0.005972049390609209
5.50350e-06	0.005978236042296058
5.50375e-06	0.005984422693982886
5.50400e-06	0.0059906093456697125
5.50425e-06	0.005996795997356561
5.50450e-06	0.006002982649043388
5.50475e-06	0.006009169300730216
5.50500e-06	0.006015355952417064
5.50525e-06	0.006021542604103891
5.50550e-06	0.006027729255790718
5.50575e-06	0.006033915907477567
5.50600e-06	0.006041719096764559
5.50625e-06	0.006055051662390068
5.50650e-06	0.006068384228015622
5.50675e-06	0.00608171679364113
5.50700e-06	0.006095049359266639
5.50725e-06	0.006108381924892193
5.50750e-06	0.006121714490517701
5.50775e-06	0.006135047056143255
5.50800e-06	0.006148379621768764
5.50825e-06	0.006161712187394273
5.50850e-06	0.006175044753019826
5.50875e-06	0.006188377318645335
5.50900e-06	0.006201709884270844
5.50925e-06	0.0062150424498963975
5.50950e-06	0.006228375015521906
5.50975e-06	0.0062393832757334745
5.51000e-06	0.006242441235650914
5.51025e-06	0.0062454991955683435
5.51050e-06	0.006248557155485772
5.51075e-06	0.006251615115403212
5.51100e-06	0.006254673075320641
5.51125e-06	0.00625773103523807
5.51150e-06	0.006260788995155509
5.51175e-06	0.006263846955072938
5.51200e-06	0.006266904914990378
5.51225e-06	0.006269962874907806
5.51250e-06	0.006273020834825236
5.51275e-06	0.006276078794742675
5.51300e-06	0.006279136754660104
5.51325e-06	0.006282194714577533
5.51350e-06	0.006285252674494973
5.51375e-06	0.006288310634412402
5.51400e-06	0.0062913685943298304
5.51425e-06	0.00629442655424727
5.51450e-06	0.006288295508397911
5.51475e-06	0.006278700242936929
5.51500e-06	0.006269104977475915
5.51525e-06	0.006259509712014933
5.51550e-06	0.0062499144465539514
5.51575e-06	0.006240319181092937
5.51600e-06	0.006230723915631955
5.51625e-06	0.006221128650170941
5.51650e-06	0.006211533384709959
5.51675e-06	0.006201938119248977
5.51700e-06	0.006192342853787963
5.51725e-06	0.0061827475883269815
5.51750e-06	0.006173152322865999
5.51775e-06	0.006163557057404985
5.51800e-06	0.006153961791944003
5.51825e-06	0.006144366526483021
5.51850e-06	0.006134771261022007
5.51875e-06	0.006125175995561025
5.51900e-06	0.006116184421265483
5.51925e-06	0.006109257776139796
5.51950e-06	0.006102331131014134
5.51975e-06	0.006095404485888471
5.52000e-06	0.006088477840762785
5.52025e-06	0.006081551195637122
5.52050e-06	0.006074624550511437
5.52075e-06	0.006067697905385774
5.52100e-06	0.006060771260260111
5.52125e-06	0.006053844615134424
5.52150e-06	0.006046917970008762
5.52175e-06	0.006055863016667715
5.52200e-06	0.006070791629703215
5.52225e-06	0.006085720242738664
5.52250e-06	0.006100648855774114
5.52275e-06	0.006115577468809614
5.52300e-06	0.006130506081845064
5.52325e-06	0.0061454346948805125
5.52350e-06	0.006160363307916012
5.52375e-06	0.006175291920951462
5.52400e-06	0.006190220533986912
5.52425e-06	0.006210653173322557
5.52450e-06	0.006249912366876362
5.52475e-06	0.006289171560430299
5.52500e-06	0.006328430753984104
5.52525e-06	0.0063676899475379085
5.52550e-06	0.006406949141091847
5.52575e-06	0.006446208334645651
5.52600e-06	0.0064854675281994555
5.52625e-06	0.006524726721753394
5.52650e-06	0.006563985915307199
5.52675e-06	0.006603245108861003
5.52700e-06	0.006647474494170257
5.52725e-06	0.006693577622535372
5.52750e-06	0.006739680750900488
5.52775e-06	0.006785783879265759
5.52800e-06	0.006831887007630875
5.52825e-06	0.00687799013599599
5.52850e-06	0.006924093264361262
5.52875e-06	0.006970196392726377
5.52900e-06	0.007016299521091649
5.52925e-06	0.007062402649456764
5.52950e-06	0.007103911319594651
5.52975e-06	0.0071297046184408495
5.53000e-06	0.00715549791728696
5.53025e-06	0.007181291216133071
5.53050e-06	0.007207084514979269
5.53075e-06	0.00723287781382538
5.53100e-06	0.007258671112671491
5.53125e-06	0.007284464411517689
5.53150e-06	0.0073102577103638
5.53175e-06	0.00733605100920991
5.53200e-06	0.007361844308056108
5.53225e-06	0.0073876376069022184
5.53250e-06	0.007413430905748329
5.53275e-06	0.0074392242045945274
5.53300e-06	0.007465017503440638
5.53325e-06	0.0074908108022868364
5.53350e-06	0.0075127370133819165
5.53375e-06	0.007521435828163299
5.53400e-06	0.007530134642944711
5.53425e-06	0.007538833457726094
5.53450e-06	0.007547532272507477
5.53475e-06	0.007556231087288889
5.53500e-06	0.0075649299020702715
5.53525e-06	0.007573628716851654
5.53550e-06	0.007582327531633066
5.53575e-06	0.007591026346414449
5.53600e-06	0.007599725161195832
5.53625e-06	0.007608423975977244
5.53650e-06	0.007617122790758627
5.53675e-06	0.007625821605540009
5.53700e-06	0.0076345204203214214
5.53725e-06	0.007643219235102804
5.53750e-06	0.0076504345449439366
5.53775e-06	0.007652575517444043
5.53800e-06	0.007654716489944142
5.53825e-06	0.007656857462444249
5.53850e-06	0.007658998434944348
5.53875e-06	0.007661139407444447
5.53900e-06	0.007663280379944553
5.53925e-06	0.007665421352444653
5.53950e-06	0.007667562324944752
5.53975e-06	0.007669703297444858
5.54000e-06	0.007671844269944957
5.54025e-06	0.007673985242445057
5.54050e-06	0.0076761262149451625
5.54075e-06	0.0076782671874452615
5.54100e-06	0.0076804081599453605
5.54125e-06	0.007682549132445467
5.54150e-06	0.007684690104945566
5.54175e-06	0.007686831077445665
5.54200e-06	0.0076883462500791505
5.54225e-06	0.0076879359041384454
5.54250e-06	0.007687525558197739
5.54275e-06	0.007687115212257033
5.54300e-06	0.007686704866316328
5.54325e-06	0.007686294520375621
5.54350e-06	0.007685884174434915
5.54375e-06	0.00768547382849421
5.54400e-06	0.007685063482553502
5.54425e-06	0.007684653136612797
5.54450e-06	0.007684242790672091
5.54475e-06	0.007683832444731384
5.54500e-06	0.007683422098790679
5.54525e-06	0.007683011752849973
5.54550e-06	0.0076826014069092665
5.54575e-06	0.0076821910609685615
5.54600e-06	0.0076817807150278555
5.54625e-06	0.007681370369087149
5.54650e-06	0.007680773821649978
5.54675e-06	0.004044233854177253
5.54700e-06	-0.00546811385974331
5.54725e-06	-0.005961276988209112
5.54750e-06	-0.003651725656535096
5.54775e-06	-0.0003252569008102313
5.54800e-06	0.00645590986001131
5.54825e-06	0.008992518438151052
5.54850e-06	0.007931179249145
5.54875e-06	0.005958826566215697
5.54900e-06	0.0009828787108453869
5.54925e-06	-0.0013333692822192936
5.54950e-06	0.001050570785179701
5.54975e-06	0.003147274585574158
5.55000e-06	0.006827633209092005
5.55025e-06	0.009952953685713377
5.55050e-06	0.009659681696713001
5.55075e-06	0.008672413629536286
5.55100e-06	0.0062269714048395425
5.55125e-06	0.003447776887082049
5.55150e-06	0.0029135504105629187
5.55175e-06	0.0042395628438960005
5.55200e-06	0.006347854316289385
5.55225e-06	0.008493692966104192
5.55250e-06	0.009167267490794762
5.55275e-06	0.008530375902970315
5.55300e-06	0.006965621750414303
5.55325e-06	0.00519124391608449
5.55350e-06	0.004822531682581001
5.55375e-06	0.0056184253741572545
5.55400e-06	0.006903681884219678
5.55425e-06	0.008211855809544895
5.55450e-06	0.008597333830560237
5.55475e-06	0.008161642502883076
5.55500e-06	0.007144612909987853
5.55525e-06	0.005996294648719581
5.55550e-06	0.005728586998856008
5.55575e-06	0.006190541016688569
5.55600e-06	0.006959265927953333
5.55625e-06	0.007742700518253985
5.55650e-06	0.007948675404550817
5.55675e-06	0.007640976220354821
5.55700e-06	0.006970015751061659
5.55725e-06	0.006217869822382016
5.55750e-06	0.006018515766765894
5.55775e-06	0.00627750222196475
5.55800e-06	0.006730052867886026
5.55825e-06	0.0071933625388244885
5.55850e-06	0.007296666428334817
5.55875e-06	0.007080105922938332
5.55900e-06	0.006638079061931415
5.55925e-06	0.006147446620052087
5.55950e-06	0.0060054743957148006
5.55975e-06	0.006153127194900668
5.56000e-06	0.0064246880065137475
5.56025e-06	0.0067057991754764104
5.56050e-06	0.00676426315771471
5.56075e-06	0.006624433760791932
5.56100e-06	0.006343618829143523
5.56125e-06	0.006031197417709482
5.56150e-06	0.005935701144164482
5.56175e-06	0.006020215934542024
5.56200e-06	0.0061810096653346054
5.56225e-06	0.006346529667881901
5.56250e-06	0.006371417905348637
5.56275e-06	0.006271027030449816
5.56300e-06	0.00608134874433809
5.56325e-06	0.005870988155780204
5.56350e-06	0.005795704687803428
5.56375e-06	0.005832448825572278
5.56400e-06	0.005916320953014829
5.56425e-06	0.006002583598964056
5.56450e-06	0.006000274342802879
5.56475e-06	0.005919101844159341
5.56500e-06	0.005781703699812748
5.56525e-06	0.005631142327773979
5.56550e-06	0.005565067096724447
5.56575e-06	0.005569118903445772
5.56600e-06	0.005602725407704758
5.56625e-06	0.005637946320950505
5.56650e-06	0.005617891562295524
5.56675e-06	0.005548732914473972
5.56700e-06	0.005444739991878367
5.56725e-06	0.005332974144284706
5.56750e-06	0.005274686630387989
5.56775e-06	0.005260963753082943
5.56800e-06	0.005266473658379182
5.56825e-06	0.005273800314269749
5.56850e-06	0.005247393597901861
5.56875e-06	0.005190550008170347
5.56900e-06	0.005110041362546424
5.56925e-06	0.00503362039522414
5.56950e-06	0.0049877076142918345
5.56975e-06	0.004971444213097653
5.57000e-06	0.004970459339474997
5.57025e-06	0.004967214480653344
5.57050e-06	0.0049470323904816085
5.57075e-06	0.00490917094459486
5.57100e-06	0.004857481377550307
5.57125e-06	0.004808427048825154
5.57150e-06	0.004779004139296249
5.57175e-06	0.004768018977130445
5.57200e-06	0.004764045489365848
5.57225e-06	0.004760072001601237
5.57250e-06	0.004753706890582946
5.57275e-06	0.0047312329308619415
5.57300e-06	0.004703988485925335
5.57325e-06	0.004676744040988821
5.57350e-06	0.004652338688348033
5.57375e-06	0.004646894275995138
5.57400e-06	0.004646073004704755
5.57425e-06	0.004645251733414374
5.57450e-06	0.00464296059792027
5.57475e-06	0.004630777956967067
5.57500e-06	0.004615720023139826
5.57525e-06	0.004600662089312533
5.57550e-06	0.004587392129308865
5.57575e-06	0.004586059205899946
5.57600e-06	0.004587612186293123
5.57625e-06	0.004589165166686294
5.57650e-06	0.004589788026075645
5.57675e-06	0.004584553593340824
5.57700e-06	0.004580082520620669
5.57725e-06	0.004575611447900498
5.57750e-06	0.004571140375180344
5.57775e-06	0.004566669302460189
5.57800e-06	0.0045647478661672855
5.57825e-06	0.004564294001632589
5.57850e-06	0.004563840137097893
5.57875e-06	0.004563386272563195
5.57900e-06	0.004562787926334822
5.57925e-06	0.004561261273714433
5.57950e-06	0.004559734621094038
5.57975e-06	0.004558207968473649
5.58000e-06	0.00455668131585326
5.58025e-06	0.004555154663232865
5.58050e-06	0.004553628010612476
5.58075e-06	0.004550085920949675
5.58100e-06	0.004545383744910641
5.58125e-06	0.0045406815688716065
5.58150e-06	0.004535979392832556
5.58175e-06	0.004531277216793522
5.58200e-06	0.004526575040754487
5.58225e-06	0.004520430197315142
5.58250e-06	0.004505016100900101
5.58275e-06	0.004489602004485061
5.58300e-06	0.004474187908069968
5.58325e-06	0.004458773811654927
5.58350e-06	0.0044433597152398864
5.58375e-06	0.0044279456188247935
5.58400e-06	0.0044125315224097525
5.58425e-06	0.004397117425994712
5.58450e-06	0.004381703329579619
5.58475e-06	0.004366289233164578
5.58500e-06	0.004350875136749485
5.58525e-06	0.004335461040334444
5.58550e-06	0.004314558123975409
5.58575e-06	0.004290495840638208
5.58600e-06	0.004266433557301089
5.58625e-06	0.0042423712739639696
5.58650e-06	0.004218308990626768
5.58675e-06	0.004194246707289648
5.58700e-06	0.004170184423952529
5.58725e-06	0.004146122140615328
5.58750e-06	0.0041220598572782085
5.58775e-06	0.004097997573941089
5.58800e-06	0.004073935290603888
5.58825e-06	0.004049873007266769
5.58850e-06	0.004026797620582111
5.58875e-06	0.004010063123508236
5.58900e-06	0.003993328626434417
5.58925e-06	0.003976594129360541
5.58950e-06	0.003959859632286723
5.58975e-06	0.003943125135212905
5.59000e-06	0.003926390638139029
5.59025e-06	0.00390965614106521
5.59050e-06	0.0038929216439913916
5.59075e-06	0.0038761871469175165
5.59100e-06	0.0038594526498436977
5.59125e-06	0.003842718152769879
5.59150e-06	0.003825983655696004
5.59175e-06	0.003809249158622185
5.59200e-06	0.0037925146615483663
5.59225e-06	0.003775780164474491
5.59250e-06	0.0037590456674006724
5.59275e-06	0.003744371342957128
5.59300e-06	0.003742933791779523
5.59325e-06	0.003741496240601923
5.59350e-06	0.0037400586894243185
5.59375e-06	0.0037386211382467185
5.59400e-06	0.0037371835870691184
5.59425e-06	0.003735746035891514
5.59450e-06	0.003734308484713914
5.59475e-06	0.0037328709335363143
5.59500e-06	0.0037314333823587095
5.59525e-06	0.0037299958311811095
5.59550e-06	0.00372855828000351
5.59575e-06	0.003727120728825905
5.59600e-06	0.0037256831776483054
5.59625e-06	0.0037242456264707053
5.59650e-06	0.0037228080752931005
5.59675e-06	0.003721370524115501
5.59700e-06	0.0037206167850450515
5.59725e-06	0.0037242565932357847
5.59750e-06	0.003727896401426506
5.59775e-06	0.003731536209617239
5.59800e-06	0.00373517601780796
5.59825e-06	0.003738815825998681
5.59850e-06	0.0037424556341894145
5.59875e-06	0.003746095442380135
5.59900e-06	0.0037497352505708563
5.59925e-06	0.0037533750587615895
5.59950e-06	0.0037570148669523106
5.59975e-06	0.0037617590856923277
5.60000e-06	0.003767139003590694
5.60025e-06	0.003772518921489041
5.60050e-06	0.0037778988393873886
5.60075e-06	0.0037832787572857547
5.60100e-06	0.003788658675184102
5.60125e-06	0.0037940385930824495
5.60150e-06	0.003799418510980815
5.60175e-06	0.003804798428879163
5.60200e-06	0.0038101783467775286
5.60225e-06	0.003817438903749348
5.60250e-06	0.0038367827165778296
5.60275e-06	0.0038561265294063765
5.60300e-06	0.003875470342234858
5.60325e-06	0.0038948141550633393
5.60350e-06	0.003914157967891886
5.60375e-06	0.0039335017807203675
5.60400e-06	0.003952845593548849
5.60425e-06	0.003972189406377396
5.60450e-06	0.003991533219205878
5.60475e-06	0.004010877032034359
5.60500e-06	0.004030220844862906
5.60525e-06	0.004057604697615705
5.60550e-06	0.004089616400596385
5.60575e-06	0.0041216281035771725
5.60600e-06	0.004153639806557852
5.60625e-06	0.00418565150953864
5.60650e-06	0.00421766321251932
5.60675e-06	0.004249674915499999
5.60700e-06	0.004281686618480787
5.60725e-06	0.004313698321461466
5.60750e-06	0.004345710024442146
5.60775e-06	0.004377721727422934
5.60800e-06	0.004409136435996936
5.60825e-06	0.004436715407953019
5.60850e-06	0.004464294379909196
5.60875e-06	0.004491873351865279
5.60900e-06	0.004519452323821362
5.60925e-06	0.004547031295777539
5.60950e-06	0.0045746102677336215
5.60975e-06	0.004602189239689704
5.61000e-06	0.004629768211645882
5.61025e-06	0.004657347183601964
5.61050e-06	0.004684926155558141
5.61075e-06	0.004712505127514224
5.61100e-06	0.004725247031735722
5.61125e-06	0.004729448713777257
5.61150e-06	0.004733650395818779
5.61175e-06	0.0047378520778603
5.61200e-06	0.0047420537599018354
5.61225e-06	0.0047462554419433565
5.61250e-06	0.0047504571239848775
5.61275e-06	0.004754658806026413
5.61300e-06	0.004758860488067934
5.61325e-06	0.004763062170109455
5.61350e-06	0.004767263852150991
5.61375e-06	0.004768753938053677
5.61400e-06	0.00475282180276973
5.61425e-06	0.004736889667485728
5.61450e-06	0.004720957532201781
5.61475e-06	0.004705025396917781
5.61500e-06	0.004689093261633834
5.61525e-06	0.0046716305785664955
5.61550e-06	0.004644334004074194
5.61575e-06	0.0046170374295819855
5.61600e-06	0.004589740855089777
5.61625e-06	0.004562444280597476
5.61650e-06	0.004535147706105268
5.61675e-06	0.004507851131613059
5.61700e-06	0.004480554557120759
5.61725e-06	0.00445325798262855
5.61750e-06	0.0044259614081363415
5.61775e-06	0.004397517433475864
5.61800e-06	0.004368413014815404
5.61825e-06	0.004339308596154944
5.61850e-06	0.004310204177494385
5.61875e-06	0.004281099758833925
5.61900e-06	0.0042519953401733675
5.61925e-06	0.004222890921512908
5.61950e-06	0.004193786502852448
5.61975e-06	0.004164682084191889
5.62000e-06	0.004137365830518626
5.62025e-06	0.00412153867932297
5.62050e-06	0.004105711528127261
5.62075e-06	0.004089884376931606
5.62100e-06	0.0040740572257359515
5.62125e-06	0.004058230074540242
5.62150e-06	0.004042402923344587
5.62175e-06	0.004026575772148932
5.62200e-06	0.0040107486209532235
5.62225e-06	0.003994921469757568
5.62250e-06	0.003979094318561913
5.62275e-06	0.003963267167366205
5.62300e-06	0.003947440016170549
5.62325e-06	0.00393161286497484
5.62350e-06	0.003915785713779186
5.62375e-06	0.0038999585625835304
5.62400e-06	0.003890627954607141
5.62425e-06	0.0038850367595304365
5.62450e-06	0.003879445564453732
5.62475e-06	0.0038738543693770085
5.62500e-06	0.0038682631743003036
5.62525e-06	0.003862671979223599
5.62550e-06	0.0038570807841468756
5.62575e-06	0.0038514895890701707
5.62600e-06	0.0038458983939934663
5.62625e-06	0.0038403071989167427
5.62650e-06	0.003834716003840038
5.62675e-06	0.0038291248087633334
5.62700e-06	0.00382353361368661
5.62725e-06	0.003817942418609905
5.62750e-06	0.0038123512235331814
5.62775e-06	0.0038071617994228065
5.62800e-06	0.0038045537857730244
5.62825e-06	0.0038019457721232336
5.62850e-06	0.0037993377584734514
5.62875e-06	0.0037967297448236693
5.62900e-06	0.0037941217311738785
5.62925e-06	0.003791513717524096
5.62950e-06	0.003788905703874314
5.62975e-06	0.0037884193507938253
5.63000e-06	0.0037891542263933683
5.63025e-06	0.0037898891019929114
5.63050e-06	0.003790623977592457
5.63075e-06	0.003791358853192
5.63100e-06	0.003792093728791543
5.63125e-06	0.0037928286043910887
5.63150e-06	0.0037968030895628346
5.63175e-06	0.0038215923242749333
5.63200e-06	0.0038463815589869473
5.63225e-06	0.0038711707936989618
5.63250e-06	0.00389596002841106
5.63275e-06	0.003920749263123074
5.63300e-06	0.003945538497835088
5.63325e-06	0.003970327732547187
5.63350e-06	0.0039951169672592015
5.63375e-06	0.004019906201971216
5.63400e-06	0.004044695436683314
5.63425e-06	0.004088654921461014
5.63450e-06	0.004143648809912945
5.63475e-06	0.004198642698365062
5.63500e-06	0.0042536365868169924
5.63525e-06	0.004308630475268923
5.63550e-06	0.00436362436372104
5.63575e-06	0.004418618252172971
5.63600e-06	0.004473612140625088
5.63625e-06	0.004528606029077019
5.63650e-06	0.004583599917528949
5.63675e-06	0.0046400271430094885
5.63700e-06	0.004705663673062359
5.63725e-06	0.0047713002031152295
5.63750e-06	0.004836936733168322
5.63775e-06	0.004902573263221193
5.63800e-06	0.004968209793274063
5.63825e-06	0.0050338463233271565
5.63850e-06	0.005099482853380027
5.63875e-06	0.005163373697572636
5.63900e-06	0.005216048371070491
5.63925e-06	0.005268723044568168
5.63950e-06	0.005321397718065845
5.63975e-06	0.0053740723915637004
5.64000e-06	0.005426747065061377
5.64025e-06	0.005479421738559232
5.64050e-06	0.005532096412056909
5.64075e-06	0.0055799117086741635
5.64100e-06	0.0055965051217912514
5.64125e-06	0.005613098534908283
5.64150e-06	0.005629691948025314
5.64175e-06	0.005646285361142402
5.64200e-06	0.005662878774259432
5.64225e-06	0.005679472187376464
5.64250e-06	0.005696065600493552
5.64275e-06	0.005712659013610582
5.64300e-06	0.005729252426727614
5.64325e-06	0.005745845839844701
5.64350e-06	0.005762439252961733
5.64375e-06	0.00577393086570997
5.64400e-06	0.005752643004740195
5.64425e-06	0.005731355143770493
5.64450e-06	0.005710067282800719
5.64475e-06	0.005688779421831016
5.64500e-06	0.005667491560861313
5.64525e-06	0.0056462036998915395
5.64550e-06	0.005624915838921837
5.64575e-06	0.005603627977952134
5.64600e-06	0.0055823401169823594
5.64625e-06	0.005561052256012658
5.64650e-06	0.005539764395042955
5.64675e-06	0.00551648835196998
5.64700e-06	0.005480438080531049
5.64725e-06	0.005444387809092117
5.64750e-06	0.005408337537653064
5.64775e-06	0.005372287266214132
5.64800e-06	0.005336236994775201
5.64825e-06	0.005300186723336148
5.64850e-06	0.005264136451897217
5.64875e-06	0.005228086180458163
5.64900e-06	0.005192035909019232
5.64925e-06	0.005161955745885895
5.64950e-06	0.005135311979501433
5.64975e-06	0.005108668213117062
5.65000e-06	0.005082024446732692
5.65025e-06	0.00505538068034823
