Time(s)	Current(A)
2.50000e-06	0.004192216222773369
2.50025e-06	0.0041467576361529325
2.50050e-06	0.004101299049532573
2.50075e-06	0.0040558404629121355
2.50100e-06	0.004010381876291699
2.50125e-06	0.003964923289671339
2.50150e-06	0.003919464703050903
2.50175e-06	0.003874006116430466
2.50200e-06	0.0038285475298100295
2.50225e-06	0.0037903937297876717
2.50250e-06	0.0037595470903229906
2.50275e-06	0.0037287004508583096
2.50300e-06	0.003697853811393681
2.50325e-06	0.003667007171929
2.50350e-06	0.003636160532464319
2.50375e-06	0.0036053138929996904
2.50400e-06	0.0035744672535350094
2.50425e-06	0.0035436206140703284
2.50450e-06	0.0035127739746056473
2.50475e-06	0.0034819273351410188
2.50500e-06	0.0034510806956763377
2.50525e-06	0.0034202340562116567
2.50550e-06	0.003399663679574689
2.50575e-06	0.0033893729054161287
2.50600e-06	0.0033790821312575684
2.50625e-06	0.003368791357099008
2.50650e-06	0.003358500582940465
2.50675e-06	0.0033482098087819047
2.50700e-06	0.0033379190346233445
2.50725e-06	0.0033276282604648016
2.50750e-06	0.0033173374863062414
2.50775e-06	0.0033070467121476812
2.50800e-06	0.003296755937989138
2.50825e-06	0.0032864651638305777
2.50850e-06	0.0032761743896720175
2.50875e-06	0.003271172797488007
2.50900e-06	0.0032714621061935073
2.50925e-06	0.0032717514148990073
2.50950e-06	0.003272040723604508
2.50975e-06	0.0032723300323100075
2.51000e-06	0.003272619341015508
2.51025e-06	0.003272908649721008
2.51050e-06	0.0032731979584265086
2.51075e-06	0.003273487267132008
2.51100e-06	0.0032737765758375087
2.51125e-06	0.0032740658845430088
2.51150e-06	0.003276945212658466
2.51175e-06	0.0032798247511874427
2.51200e-06	0.0032827042897164197
2.51225e-06	0.0032855838282453914
2.51250e-06	0.003288463366774368
2.51275e-06	0.0032913429053033445
2.51300e-06	0.0032942224438323215
2.51325e-06	0.003297101982361293
2.51350e-06	0.0032999815208902697
2.51375e-06	0.0033028610594192467
2.51400e-06	0.0033115553911404545
2.51425e-06	0.0033260664057857526
2.51450e-06	0.003340577420431051
2.51475e-06	0.0033550884350763495
2.51500e-06	0.0033695994497216233
2.51525e-06	0.0033841104643669213
2.51550e-06	0.0033986214790122198
2.51575e-06	0.0034131324936574935
2.51600e-06	0.003427643508302792
2.51625e-06	0.0034562265641712724
2.51650e-06	0.003498886234492678
2.51675e-06	0.0035415459048141556
2.51700e-06	0.0035842055751356336
2.51725e-06	0.003626865245457111
2.51750e-06	0.003669524915778517
2.51775e-06	0.0037121845860999944
2.51800e-06	0.0037548442564214724
2.51825e-06	0.0037975039267428776
2.51850e-06	0.0038511396021434323
2.51875e-06	0.0039157548496817456
2.51900e-06	0.003980370097220059
2.51925e-06	0.004044985344758263
2.51950e-06	0.004109600592296576
2.51975e-06	0.004174215839834889
2.52000e-06	0.004238831087373093
2.52025e-06	0.004303446334911407
2.52050e-06	0.0043701350826143735
2.52075e-06	0.00443889800434245
2.52100e-06	0.004507660926070644
2.52125e-06	0.004576423847798838
2.52150e-06	0.0046451867695270314
2.52175e-06	0.004713949691255109
2.52200e-06	0.004782712612983303
2.52225e-06	0.0048514755347114965
2.52250e-06	0.00491060380195178
2.52275e-06	0.004960094283566846
2.52300e-06	0.005009584765181913
2.52325e-06	0.005059075246796979
2.52350e-06	0.005108565728411962
2.52375e-06	0.005158056210027028
2.52400e-06	0.005207546691642095
2.52425e-06	0.005257037173257077
2.52450e-06	0.005306527654872144
2.52475e-06	0.00535601813648721
2.52500e-06	0.005394864911512469
2.52525e-06	0.005423064520881508
2.52550e-06	0.005451264130250548
2.52575e-06	0.005479463739619587
2.52600e-06	0.00550766334898858
2.52625e-06	0.005535862958357619
2.52650e-06	0.005564062567726658
2.52675e-06	0.00559226217709565
2.52700e-06	0.00562046178646469
2.52725e-06	0.005648661395833729
2.52750e-06	0.005670677933278465
2.52775e-06	0.005686509389380613
2.52800e-06	0.005702340845482787
2.52825e-06	0.005718172301584962
2.52850e-06	0.005734003757687111
2.52875e-06	0.005749835213789285
2.52900e-06	0.00576566666989146
2.52925e-06	0.005781498125993608
2.52950e-06	0.0057973295820957825
2.52975e-06	0.005813161038197958
2.53000e-06	0.005828992494300133
2.53025e-06	0.00584482395040228
2.53050e-06	0.005860655406504455
2.53075e-06	0.00587648686260663
2.53100e-06	0.005892318318708778
2.53125e-06	0.005899539465789007
2.53150e-06	0.005906759913366286
2.53175e-06	0.005913980360943566
2.53200e-06	0.005921200808520833
2.53225e-06	0.005928421256098113
2.53250e-06	0.0059356417036753924
2.53275e-06	0.00594286215125266
2.53300e-06	0.005950082598829939
2.53325e-06	0.005957303046407219
2.53350e-06	0.005964523493984486
2.53375e-06	0.005971743941561766
2.53400e-06	0.0059789643891390454
2.53425e-06	0.005986184836716325
2.53450e-06	0.005993405284293592
2.53475e-06	0.0059919956157725215
2.53500e-06	0.005981953026476728
2.53525e-06	0.005971910437180951
2.53550e-06	0.005961867847885156
2.53575e-06	0.005951825258589363
2.53600e-06	0.005941782669293568
2.53625e-06	0.005931740079997791
2.53650e-06	0.005921697490701997
2.53675e-06	0.005911654901406203
2.53700e-06	0.005901612312110426
2.53725e-06	0.005891569722814632
2.53750e-06	0.005881527133518838
2.53775e-06	0.0058714845442230604
2.53800e-06	0.005861441954927267
2.53825e-06	0.005834558109990466
2.53850e-06	0.005807672896867034
2.53875e-06	0.005780787683743647
2.53900e-06	0.005753902470620214
2.53925e-06	0.005727017257496781
2.53950e-06	0.005700132044373394
2.53975e-06	0.005673246831249962
2.54000e-06	0.005646361618126529
2.54025e-06	0.005619476405003097
2.54050e-06	0.005592591191879709
2.54075e-06	0.005565705978756277
2.54100e-06	0.005538820765632844
2.54125e-06	0.005511935552509457
2.54150e-06	0.005486500302375401
2.54175e-06	0.005462515486450041
2.54200e-06	0.005438530670524722
2.54225e-06	0.005414545854599362
2.54250e-06	0.005390561038674003
2.54275e-06	0.005366576222748643
2.54300e-06	0.005342591406823324
2.54325e-06	0.005318606590897964
2.54350e-06	0.0052946217749726045
2.54375e-06	0.005270636959047286
2.54400e-06	0.005246652143121926
2.54425e-06	0.005222667327196566
2.54450e-06	0.005198682511271246
2.54475e-06	0.0051823623630087865
2.54500e-06	0.005173709373327835
2.54525e-06	0.005165056383646884
2.54550e-06	0.005156403393965947
2.54575e-06	0.005147750404284995
2.54600e-06	0.005139097414604043
2.54625e-06	0.005130444424923107
2.54650e-06	0.005121791435242155
2.54675e-06	0.005113138445561203
2.54700e-06	0.005104485455880252
2.54725e-06	0.005095832466199315
2.54750e-06	0.005087179476518364
2.54775e-06	0.005078526486837411
2.54800e-06	0.005074929814104054
2.54825e-06	0.00507639110155647
2.54850e-06	0.005077852389008887
2.54875e-06	0.0050793136764613
2.54900e-06	0.005080774963913717
2.54925e-06	0.005082236251366132
2.54950e-06	0.005083697538818549
2.54975e-06	0.0050851588262709625
2.55000e-06	0.005086620113723379
2.55025e-06	0.005088081401175795
2.55050e-06	0.005089542688628209
2.55075e-06	0.005092451608790349
2.55100e-06	0.005096808632124312
2.55125e-06	0.005101165655458274
2.55150e-06	0.005105522678792229
2.55175e-06	0.005109879702126193
2.55200e-06	0.005114236725460155
2.55225e-06	0.00511859374879411
2.55250e-06	0.005122950772128073
2.55275e-06	0.005127307795462036
2.55300e-06	0.005131664818795991
2.55325e-06	0.005136021842129954
2.55350e-06	0.005139908243041269
2.55375e-06	0.005139088289510462
2.55400e-06	0.00513403138039745
2.55425e-06	0.0051289744712844304
2.55450e-06	0.00512391756217141
2.55475e-06	0.005118860653058398
2.55500e-06	0.0051138037439453785
2.55525e-06	0.005108746834832358
2.55550e-06	0.005103689925719338
2.55575e-06	0.0050986330166063265
2.55600e-06	0.005093576107493306
2.55625e-06	0.005088519198380286
2.55650e-06	0.005083462289267274
2.55675e-06	0.005078405380154254
2.55700e-06	0.005073348471041234
2.55725e-06	0.005050916218933756
2.55750e-06	0.005028482555249842
2.55775e-06	0.005006048891565929
2.55800e-06	0.004983615227882016
2.55825e-06	0.004961181564198141
2.55850e-06	0.004938747900514228
2.55875e-06	0.004916314236830314
2.55900e-06	0.004893880573146439
2.55925e-06	0.004871446909462526
2.55950e-06	0.004849013245778613
2.55975e-06	0.0048265795820947
2.56000e-06	0.004804145918410824
2.56025e-06	0.004781712254726911
2.56050e-06	0.004756660062003058
2.56075e-06	0.004728988489250808
2.56100e-06	0.004701316916498511
2.56125e-06	0.004673645343746214
2.56150e-06	0.004645973770993964
2.56175e-06	0.004618302198241667
2.56200e-06	0.00459063062548937
2.56225e-06	0.0045629590527370735
2.56250e-06	0.004538285414972302
2.56275e-06	0.004516610686485615
2.56300e-06	0.004494935957998928
2.56325e-06	0.004473261229512277
2.56350e-06	0.00445158650102559
2.56375e-06	0.004429911772538903
2.56400e-06	0.0044082370440522165
2.56425e-06	0.004386562315565566
2.56450e-06	0.004362969831710422
2.56475e-06	0.004337458969240747
2.56500e-06	0.004311948106771116
2.56525e-06	0.004286437244301441
2.56550e-06	0.004260926381831766
2.56575e-06	0.004235415519362134
2.56600e-06	0.004209904656892459
2.56625e-06	0.004184393794422784
2.56650e-06	0.004158882931953109
2.56675e-06	0.004133372069483478
2.56700e-06	0.004107861207013803
2.56725e-06	0.004082350344544128
2.56750e-06	0.004056839482074496
2.56775e-06	0.004018789435703066
2.56800e-06	0.003980738370645552
2.56825e-06	0.003942687305588039
2.56850e-06	0.0039046362405305893
2.56875e-06	0.003866585175473076
2.56900e-06	0.0038285341104155623
2.56925e-06	0.0037904830453581134
2.56950e-06	0.0037524319803006
2.56975e-06	0.0037143809152430864
2.57000e-06	0.0036763298501856375
2.57025e-06	0.003638278785128124
2.57050e-06	0.0036002277200706105
2.57075e-06	0.003562478257999814
2.57100e-06	0.003525030496932942
2.57125e-06	0.0034875827358660065
2.57150e-06	0.0034501349747990714
2.57175e-06	0.0034126872137321997
2.57200e-06	0.003375239452665264
2.57225e-06	0.003337791691598329
2.57250e-06	0.0033003439305313935
2.57275e-06	0.0032628961694645218
2.57300e-06	0.0032254484083975867
2.57325e-06	0.003188000647330651
2.57350e-06	0.0031588848691852093
2.57375e-06	0.003138103781750105
2.57400e-06	0.003117322694315
2.57425e-06	0.003096541606879931
2.57450e-06	0.003075760519444826
2.57475e-06	0.0030549794320097216
2.57500e-06	0.0030341983445746168
2.57525e-06	0.0030134172571395475
2.57550e-06	0.0029926361697044427
2.57575e-06	0.0029718550822693383
2.57600e-06	0.0029510739948342686
2.57625e-06	0.0029383256281008373
2.57650e-06	0.0029336125926017797
2.57675e-06	0.002928899557102722
2.57700e-06	0.0029241865216036726
2.57725e-06	0.002919473486104615
2.57750e-06	0.002914760450605558
2.57775e-06	0.002910047415106508
2.57800e-06	0.0029053343796074504
2.57825e-06	0.002900621344108393
2.57850e-06	0.0028959083086093434
2.57875e-06	0.002891195273110286
2.57900e-06	0.0028864822376112285
2.57925e-06	0.00288617294381796
2.57950e-06	0.0028902688228908987
2.57975e-06	0.0028943647019638442
2.58000e-06	0.0028984605810367897
2.58025e-06	0.0029025564601097282
2.58050e-06	0.0029066523391826737
2.58075e-06	0.002910748218255619
2.58100e-06	0.0029148440973285647
2.58125e-06	0.0029189399764015032
2.58150e-06	0.0029230358554744487
2.58175e-06	0.002927131734547394
2.58200e-06	0.0029312276136203327
2.58225e-06	0.0029357482105544304
2.58250e-06	0.002940693663377626
2.58275e-06	0.002945639116200813
2.58300e-06	0.002950584569024009
2.58325e-06	0.002955530021847204
2.58350e-06	0.0029604754746704
2.58375e-06	0.002965420927493587
2.58400e-06	0.0029703663803167827
2.58425e-06	0.002975311833139978
2.58450e-06	0.0029802572859631655
2.58475e-06	0.002985202738786361
2.58500e-06	0.0029901481916095565
2.58525e-06	0.002995093644432752
2.58550e-06	0.003000039097255939
2.58575e-06	0.0030049845500791346
2.58600e-06	0.0030099300029023304
2.58625e-06	0.0030148754557255174
2.58650e-06	0.0030198209085487127
2.58675e-06	0.0030247663613719084
2.58700e-06	0.0030297118141950955
2.58725e-06	0.0030346572670182912
2.58750e-06	0.0030396027198414865
2.58775e-06	0.0030469564421702045
2.58800e-06	0.003054310360147336
2.58825e-06	0.0030616642781244804
2.58850e-06	0.0030690181961016247
2.58875e-06	0.0030763721140787564
2.58900e-06	0.0030837260320559006
2.58925e-06	0.003091079950033045
2.58950e-06	0.003098433868010189
2.58975e-06	0.0031057877859873213
2.59000e-06	0.0031131417039644655
2.59025e-06	0.00312049562194161
2.59050e-06	0.0031278495399187415
2.59075e-06	0.0031352034578958857
2.59100e-06	0.00314255737587303
2.59125e-06	0.0031499112938501617
2.59150e-06	0.003157265211827306
2.59175e-06	0.00316461912980445
2.59200e-06	0.0031719730477815945
2.59225e-06	0.003179326965758726
2.59250e-06	0.003186680883735871
2.59275e-06	0.0031940348017130147
2.59300e-06	0.0031989803514584757
2.59325e-06	0.003201516750282781
2.59350e-06	0.0032040531491070866
2.59375e-06	0.003206589547931392
2.59400e-06	0.003209125946755693
2.59425e-06	0.0032116623455799983
2.59450e-06	0.003214198744404304
2.59475e-06	0.003216735143228605
2.59500e-06	0.003209523080979273
2.59525e-06	0.0031925593895286105
2.59550e-06	0.0031755956980779767
2.59575e-06	0.003158632006627314
2.59600e-06	0.003141668315176651
2.59625e-06	0.0031247046237259887
2.59650e-06	0.003107740932275355
2.59675e-06	0.003090777240824692
2.59700e-06	0.0030623317537291257
2.59725e-06	0.0030224007395490146
2.59750e-06	0.002982469725368836
2.59775e-06	0.0029425387111886568
2.59800e-06	0.002902607697008478
2.59825e-06	0.0028626766828283665
2.59850e-06	0.002822745668648188
2.59875e-06	0.002782814654468009
2.59900e-06	0.0027279279389211637
2.59925e-06	0.002673040008368993
2.59950e-06	0.002618152077816822
2.59975e-06	0.002563264147264744
2.60000e-06	0.002508376216712573
2.60025e-06	0.002453488286160402
2.60050e-06	0.002398600355608231
2.60075e-06	0.002342054734217897
2.60100e-06	0.002283850883260408
2.60125e-06	0.0022256470323029185
2.60150e-06	0.002167443181345528
2.60175e-06	0.0021092393303880387
2.60200e-06	0.002051035479430549
2.60225e-06	0.0019999352646365687
2.60250e-06	0.0019488356269440385
2.60275e-06	0.0018977359892514215
2.60300e-06	0.0018466363515588044
2.60325e-06	0.001795536713866274
2.60350e-06	0.001750466480658413
2.60375e-06	0.0017114276114165395
2.60400e-06	0.0016723887421747322
2.60425e-06	0.0016390616968723262
2.60450e-06	0.0016114483317809427
2.60475e-06	0.0015891347570439172
2.60500e-06	0.0015721226950270572
2.60525e-06	0.0015604339645380837
2.60550e-06	0.0015540702955933916
2.60575e-06	0.0015530874871013472
2.60600e-06	0.001557487287774478
2.60625e-06	0.001567557164875382
2.60650e-06	0.0015832989611081552
2.60675e-06	0.0016045741552864088
2.60700e-06	0.001631384545695491
2.60725e-06	0.0016632804406715768
2.60750e-06	0.0017002634929401386
2.60775e-06	0.0017419054278408274
2.60800e-06	0.0017882077594523415
2.60825e-06	0.0018398755580914152
2.60850e-06	0.00189691056746812
2.60875e-06	0.001953945576844825
2.60900e-06	0.0020161675787566924
2.60925e-06	0.0020835782589115376
2.60950e-06	0.002150988939066497
2.60975e-06	0.0022228290810058964
2.61000e-06	0.002299100124249512
2.61025e-06	0.002375371167493257
2.61050e-06	0.002451642210737002
2.61075e-06	0.002527913253980747
2.61100e-06	0.002604184297224363
2.61125e-06	0.0026815726251248743
2.61150e-06	0.002758961043793913
2.61175e-06	0.00283634946246282
2.61200e-06	0.0029137378811318585
2.61225e-06	0.002991126299800897
2.61250e-06	0.0030583664353170397
2.61275e-06	0.0031154549896146573
2.61300e-06	0.0031725435439122754
2.61325e-06	0.003229632098209893
2.61350e-06	0.0032867206525074143
2.61375e-06	0.003343809206805032
2.61400e-06	0.0034008977611026496
2.61425e-06	0.003457986315400171
2.61450e-06	0.0035150748696977886
2.61475e-06	0.0035721634239954062
2.61500e-06	0.003599221544232507
2.61525e-06	0.003626277224788196
2.61550e-06	0.0036533329053439314
2.61575e-06	0.003680388585899666
2.61600e-06	0.0037074442664553555
2.61625e-06	0.0037344999470110907
2.61650e-06	0.0037615556275668255
2.61675e-06	0.003788611308122515
2.61700e-06	0.00381566698867825
2.61725e-06	0.0038317916085413677
2.61750e-06	0.0038369816152526355
2.61775e-06	0.0038421716219638946
2.61800e-06	0.0038473616286751624
2.61825e-06	0.00385255163538643
2.61850e-06	0.0038577416420976893
2.61875e-06	0.003862931648808957
2.61900e-06	0.0038681216555202253
2.61925e-06	0.003873311662231484
2.61950e-06	0.0038785016689427522
2.61975e-06	0.00388369167565402
2.62000e-06	0.0038831778774331385
2.62025e-06	0.0038769584206141765
2.62050e-06	0.0038707389637952037
2.62075e-06	0.003864519506976231
2.62100e-06	0.003858300050157269
2.62125e-06	0.003852080593338296
2.62150e-06	0.0038458611365193235
2.62175e-06	0.0038396416797003507
2.62200e-06	0.0038334222228813887
2.62225e-06	0.003827202766062416
2.62250e-06	0.0038209833092434434
2.62275e-06	0.0038159163216197824
2.62300e-06	0.0038120021777296397
2.62325e-06	0.0038080880338394966
2.62350e-06	0.0038041738899493604
2.62375e-06	0.0038002597460592173
2.62400e-06	0.003796345602169074
2.62425e-06	0.0037924314582789315
2.62450e-06	0.003788517314388795
2.62475e-06	0.003784603170498652
2.62500e-06	0.003780689026608509
2.62525e-06	0.003776774882718373
2.62550e-06	0.0037728607388282298
2.62575e-06	0.0037689465949380867
2.62600e-06	0.003765032451047944
2.62625e-06	0.0037611183071578074
2.62650e-06	0.0037572041632676647
2.62675e-06	0.0037532900193775216
2.62700e-06	0.0037493758754873854
2.62725e-06	0.0037454617315972423
2.62750e-06	0.003741547587707099
2.62775e-06	0.003737633443816963
2.62800e-06	0.00373371929992682
2.62825e-06	0.003729805156036677
2.62850e-06	0.003725891012146534
2.62875e-06	0.0037219768682563974
2.62900e-06	0.0037199214446400953
2.62925e-06	0.0037197253453587842
2.62950e-06	0.0037195292460774736
2.62975e-06	0.0037193331467961625
2.63000e-06	0.0037191370475148514
2.63025e-06	0.0037189409482335403
2.63050e-06	0.0037187448489522297
2.63075e-06	0.0037185487496709186
2.63100e-06	0.0037183526503896075
2.63125e-06	0.003718156551108297
2.63150e-06	0.0037179604518269857
2.63175e-06	0.0037177643525456746
2.63200e-06	0.003717568253264364
2.63225e-06	0.003717372153983053
2.63250e-06	0.003717176054701742
2.63275e-06	0.0037169799554204307
2.63300e-06	0.00371678385613912
2.63325e-06	0.003716587756857809
2.63350e-06	0.003716391657576498
2.63375e-06	0.0037161955582951873
2.63400e-06	0.003715999459013876
2.63425e-06	0.003715803359732565
2.63450e-06	0.003715607260451254
2.63475e-06	0.0037154111611699433
2.63500e-06	0.0037152150618886323
2.63525e-06	0.0037188283559962654
2.63550e-06	0.0037262522814987993
2.63575e-06	0.0037336762070013458
2.63600e-06	0.003741100132503892
2.63625e-06	0.003748524058006426
2.63650e-06	0.0037559479835089725
2.63675e-06	0.003763371909011519
2.63700e-06	0.0037707958345140655
2.63725e-06	0.0037782197600165993
2.63750e-06	0.003785643685519146
2.63775e-06	0.0037930676110216922
2.63800e-06	0.003800491536524226
2.63825e-06	0.0038079154620267726
2.63850e-06	0.003815339387529319
2.63875e-06	0.0038227633130318655
2.63900e-06	0.003836207814094875
2.63925e-06	0.0038496528042714553
2.63950e-06	0.003863097794448035
2.63975e-06	0.003876542784624592
2.64000e-06	0.0038899877748011717
2.64025e-06	0.003903432764977752
2.64050e-06	0.003916877755154309
2.64075e-06	0.003930322745330889
2.64100e-06	0.003943767735507468
2.64125e-06	0.003957212725684048
2.64150e-06	0.003970657715860605
2.64175e-06	0.003984102706037185
2.64200e-06	0.003997547696213765
2.64225e-06	0.004010992686390322
2.64250e-06	0.004020745454063815
2.64275e-06	0.004026804799307122
2.64300e-06	0.00403286414455043
2.64325e-06	0.004038923489793728
2.64350e-06	0.004044982835037036
2.64375e-06	0.004051042180280344
2.64400e-06	0.004057101525523641
2.64425e-06	0.004063160870766949
2.64450e-06	0.004069220216010257
2.64475e-06	0.004075279561253554
2.64500e-06	0.004081338906496862
2.64525e-06	0.004087398251740169
2.64550e-06	0.004093457596983477
2.64575e-06	0.004099516942226775
2.64600e-06	0.004105576287470083
2.64625e-06	0.004093078546894708
2.64650e-06	0.0040805792987353845
2.64675e-06	0.00406808005057604
2.64700e-06	0.004055580802416694
2.64725e-06	0.00404308155425735
2.64750e-06	0.004030582306098026
2.64775e-06	0.004018083057938681
2.64800e-06	0.004005583809779336
2.64825e-06	0.003993084561620012
2.64850e-06	0.003980585313460667
2.64875e-06	0.003968086065301322
2.64900e-06	0.003955586817141998
2.64925e-06	0.003943087568982653
2.64950e-06	0.0039305883208233085
