Time(s)	Current(A)
5.25000e-06	0.0068150119564496766
5.25025e-06	0.0068446857951271825
5.25050e-06	0.0068743596338046884
5.25075e-06	0.006904033472482294
5.25100e-06	0.0069337073111598
5.25125e-06	0.006963381149837306
5.25150e-06	0.006993054988514912
5.25175e-06	0.007022728827192418
5.25200e-06	0.007052402665870023
5.25225e-06	0.007082076504547529
5.25250e-06	0.007111211529911791
5.25275e-06	0.007134445355657663
5.25300e-06	0.007157679181403457
5.25325e-06	0.00718091300714925
5.25350e-06	0.007204146832895122
5.25375e-06	0.0072273806586409155
5.25400e-06	0.0072506144843867085
5.25425e-06	0.0072738483101325805
5.25450e-06	0.0072970821358783735
5.25475e-06	0.007320315961624167
5.25500e-06	0.007343549787370039
5.25525e-06	0.007366783613115832
5.25550e-06	0.007377304620792223
5.25575e-06	0.007378757484008628
5.25600e-06	0.007380210347225027
5.25625e-06	0.007381663210441433
5.25650e-06	0.007383116073657833
5.25675e-06	0.007384568936874232
5.25700e-06	0.007386021800090637
5.25725e-06	0.0073874746633070375
5.25750e-06	0.007388927526523437
5.25775e-06	0.007390380389739842
5.25800e-06	0.007391833252956242
5.25825e-06	0.007391721444560321
5.25850e-06	0.0073744730152022556
5.25875e-06	0.007357224585844247
5.25900e-06	0.0073399761564862396
5.25925e-06	0.007322727727128173
5.25950e-06	0.0073054792977701654
5.25975e-06	0.007288230868412158
5.26000e-06	0.007270982439054091
5.26025e-06	0.007253734009696084
5.26050e-06	0.007236485580338017
5.26075e-06	0.00721923715098001
5.26100e-06	0.007201988721622001
5.26125e-06	0.0071847402922639355
5.26150e-06	0.007165679604726658
5.26175e-06	0.007145326220410693
5.26200e-06	0.007124972836094659
5.26225e-06	0.007104619451778694
5.26250e-06	0.0070842660674627295
5.26275e-06	0.007063912683146696
5.26300e-06	0.007043559298830731
5.26325e-06	0.007023205914514766
5.26350e-06	0.0070028525301987325
5.26375e-06	0.006982499145882767
5.26400e-06	0.006962145761566803
5.26425e-06	0.006941792377250769
5.26450e-06	0.006923001381680429
5.26475e-06	0.006921322004616963
5.26500e-06	0.0069196426275535015
5.26525e-06	0.00691796325049004
5.26550e-06	0.006916283873426573
5.26575e-06	0.0069146044963631125
5.26600e-06	0.006912925119299651
5.26625e-06	0.006911245742236184
5.26650e-06	0.006909566365172723
5.26675e-06	0.006907886988109261
5.26700e-06	0.006906207611045795
5.26725e-06	0.0069045282339823336
5.26750e-06	0.006917392458436061
5.26775e-06	0.00694063073833337
5.26800e-06	0.0069638690182306
5.26825e-06	0.006987107298127831
5.26850e-06	0.00701034557802514
5.26875e-06	0.00703358385792237
5.26900e-06	0.007056822137819679
5.26925e-06	0.00708006041771691
5.26950e-06	0.007103298697614139
5.26975e-06	0.007126536977511449
5.27000e-06	0.007149775257408679
5.27025e-06	0.007173930080375334
5.27050e-06	0.007208123080708326
5.27075e-06	0.007242316081041201
5.27100e-06	0.007276509081374077
5.27125e-06	0.007310702081707069
5.27150e-06	0.007344895082039944
5.27175e-06	0.00737908808237282
5.27200e-06	0.007413281082705812
5.27225e-06	0.007447474083038687
5.27250e-06	0.007481667083371563
5.27275e-06	0.007515860083704555
5.27300e-06	0.007549141662161571
5.27325e-06	0.007572441151670626
5.27350e-06	0.007595740641179601
5.27375e-06	0.007619040130688577
5.27400e-06	0.007642339620197632
5.27425e-06	0.007665639109706607
5.27450e-06	0.007688938599215583
5.27475e-06	0.007712238088724638
5.27500e-06	0.007735537578233613
5.27525e-06	0.007758837067742589
5.27550e-06	0.0077821365572516435
5.27575e-06	0.007803648199051435
5.27600e-06	0.007805578947163935
5.27625e-06	0.007807509695276441
5.27650e-06	0.007809440443388941
5.27675e-06	0.007811371191501441
5.27700e-06	0.007813301939613947
5.27725e-06	0.007815232687726447
5.27750e-06	0.007817163435838952
5.27775e-06	0.007819094183951452
5.27800e-06	0.007821024932063951
5.27825e-06	0.007822955680176458
5.27850e-06	0.007824886428288958
5.27875e-06	0.007826817176401457
5.27900e-06	0.007828747924513964
5.27925e-06	0.007830678672626464
5.27950e-06	0.007832609420738964
5.27975e-06	0.007833513824426198
5.28000e-06	0.007823177482624167
5.28025e-06	0.007812841140822136
5.28050e-06	0.00780250479902007
5.28075e-06	0.007792168457218039
5.28100e-06	0.007781832115416008
5.28125e-06	0.007771495773613942
5.28150e-06	0.007761159431811911
5.28175e-06	0.0077508230900098455
5.28200e-06	0.007740486748207815
5.28225e-06	0.007730150406405784
5.28250e-06	0.007719814064603718
5.28275e-06	0.007709477722801688
5.28300e-06	0.007699141380999657
5.28325e-06	0.00768880503919759
5.28350e-06	0.00767846869739556
5.28375e-06	0.007667970870235234
5.28400e-06	0.007655704420604932
5.28425e-06	0.007643437970974672
5.28450e-06	0.007631171521344411
5.28475e-06	0.007618905071714109
5.28500e-06	0.007606638622083849
5.28525e-06	0.007594372172453588
5.28550e-06	0.007582105722823286
5.28575e-06	0.007569839273193026
5.28600e-06	0.007556173717764485
5.28625e-06	0.007527184853905573
5.28650e-06	0.007498195990046662
5.28675e-06	0.007469207126187652
5.28700e-06	0.00744021826232874
5.28725e-06	0.007411229398469828
5.28750e-06	0.007382240534610818
5.28775e-06	0.007353251670751907
5.28800e-06	0.007324262806892995
5.28825e-06	0.00729374702900747
5.28850e-06	0.007246508159414923
5.28875e-06	0.007199269289822375
5.28900e-06	0.007152030420229667
5.28925e-06	0.00710479155063712
5.28950e-06	0.007057552681044573
5.28975e-06	0.0070103138114518656
5.29000e-06	0.006963074941859318
5.29025e-06	0.00691583607226661
5.29050e-06	0.006868597202674063
5.29075e-06	0.006820976997965123
5.29100e-06	0.00676918032882449
5.29125e-06	0.006717383659684032
5.29150e-06	0.006665586990543574
5.29175e-06	0.00661379032140294
5.29200e-06	0.006561993652262482
5.29225e-06	0.006510196983122024
5.29250e-06	0.00645840031398139
5.29275e-06	0.006406603644840932
5.29300e-06	0.006354806975700474
5.29325e-06	0.006304464858775796
5.29350e-06	0.006270053311398961
5.29375e-06	0.006235641764022124
5.29400e-06	0.006201230216645173
5.29425e-06	0.006166818669268336
5.29450e-06	0.006132407121891384
5.29475e-06	0.006097995574514548
5.29500e-06	0.006063584027137712
5.29525e-06	0.00602917247976076
5.29550e-06	0.006015494100870091
5.29575e-06	0.006016604839999521
5.29600e-06	0.006017715579128956
5.29625e-06	0.006018826318258387
5.29650e-06	0.006019937057387818
5.29675e-06	0.006021047796517252
5.29700e-06	0.006022158535646683
5.29725e-06	0.006023269274776114
5.29750e-06	0.006027576709259734
5.29775e-06	0.006066895040629969
5.29800e-06	0.006106213372000204
5.29825e-06	0.006145531703370573
5.29850e-06	0.006184850034740808
5.29875e-06	0.0062241683661111765
5.29900e-06	0.006263486697481412
5.29925e-06	0.006302805028851647
5.29950e-06	0.006342123360222015
5.29975e-06	0.00638144169159225
5.30000e-06	0.006433538228825121
5.30025e-06	0.0064947495520928525
5.30050e-06	0.006555960875360377
5.30075e-06	0.006617172198627901
5.30100e-06	0.006678383521895633
5.30125e-06	0.006739594845163157
5.30150e-06	0.006800806168430681
5.30175e-06	0.006862017491698413
5.30200e-06	0.006923228814965937
5.30225e-06	0.006983884956145061
5.30250e-06	0.007038460623368766
5.30275e-06	0.007093036290592287
5.30300e-06	0.007147611957815992
5.30325e-06	0.007202187625039513
5.30350e-06	0.0072567632922630335
5.30375e-06	0.007311338959486739
5.30400e-06	0.0073659146267102595
5.30425e-06	0.00742049029393378
5.30450e-06	0.007458729473987741
5.30475e-06	0.00748531572039056
5.30500e-06	0.007511901966793379
5.30525e-06	0.007538488213196289
5.30550e-06	0.0075650744595991085
5.30575e-06	0.007591660706001928
5.30600e-06	0.007618246952404837
5.30625e-06	0.007644833198807656
5.30650e-06	0.007668485177537916
5.30675e-06	0.00766000042396028
5.30700e-06	0.007651515670382674
5.30725e-06	0.0076430309168050384
5.30750e-06	0.0076345461632274314
5.30775e-06	0.007626061409649824
5.30800e-06	0.007617576656072189
5.30825e-06	0.007609091902494583
5.30850e-06	0.007600607148916976
5.30875e-06	0.00759212239533934
5.30900e-06	0.007583637641761733
5.30925e-06	0.007575152888184126
5.30950e-06	0.0075525099562028025
5.30975e-06	0.007519767893862195
5.31000e-06	0.007487025831521588
5.31025e-06	0.00745428376918087
5.31050e-06	0.007421541706840263
5.31075e-06	0.007388799644499656
5.31100e-06	0.007356057582158938
5.31125e-06	0.007323315519818331
5.31150e-06	0.007290573457477613
5.31175e-06	0.007257831395137006
5.31200e-06	0.007225089332796399
5.31225e-06	0.007192370200255642
5.31250e-06	0.0071599021998287535
5.31275e-06	0.007127434199401865
5.31300e-06	0.007094966198974866
5.31325e-06	0.007062498198547978
5.31350e-06	0.0070300301981210895
5.31375e-06	0.006997562197694091
5.31400e-06	0.006965094197267202
5.31425e-06	0.00693345123366536
5.31450e-06	0.006910844251281406
5.31475e-06	0.0068882372688975286
5.31500e-06	0.0068656302865136515
5.31525e-06	0.006843023304129698
5.31550e-06	0.006820416321745821
5.31575e-06	0.006797809339361868
5.31600e-06	0.006775202356977991
5.31625e-06	0.006753106650471842
5.31650e-06	0.006736610547628767
5.31675e-06	0.0067201144447857466
5.31700e-06	0.0067036183419427265
5.31725e-06	0.006687122239099651
5.31750e-06	0.006670626136256632
5.31775e-06	0.006654130033413612
5.31800e-06	0.006637633930570536
5.31825e-06	0.006621137827727517
5.31850e-06	0.006604641724884497
5.31875e-06	0.006588145622041421
5.31900e-06	0.006571649519198402
5.31925e-06	0.006555153416355382
5.31950e-06	0.006538657313512306
5.31975e-06	0.006522161210669287
5.32000e-06	0.006505665107826211
5.32025e-06	0.006489169004983191
5.32050e-06	0.006472672902140172
5.32075e-06	0.0064566415171372895
5.32100e-06	0.006445699822129277
5.32125e-06	0.006434758127121264
5.32150e-06	0.006423816432113214
5.32175e-06	0.0064128747371052005
5.32200e-06	0.006401933042097188
5.32225e-06	0.006390991347089137
5.32250e-06	0.006380049652081125
5.32275e-06	0.0063691079570731115
5.32300e-06	0.006358166262065062
5.32325e-06	0.006347224567057048
5.32350e-06	0.006336282872049036
5.32375e-06	0.006325341177040986
5.32400e-06	0.006314399482032973
5.32425e-06	0.006303457787024923
5.32450e-06	0.0062925160920169095
5.32475e-06	0.006281574397008897
5.32500e-06	0.006270632702000846
5.32525e-06	0.0062609356819110906
5.32550e-06	0.006264870609916832
5.32575e-06	0.006268805537922586
5.32600e-06	0.006272740465928328
5.32625e-06	0.006276675393934068
5.32650e-06	0.006280610321939823
5.32675e-06	0.006284545249945564
5.32700e-06	0.006288480177951305
5.32725e-06	0.006292415105957059
5.32750e-06	0.0062963500339628005
5.32775e-06	0.006300284961968542
5.32800e-06	0.006304219889974296
5.32825e-06	0.006308154817980037
5.32850e-06	0.006312089745985791
5.32875e-06	0.006316024673991533
5.32900e-06	0.006319959601997273
5.32925e-06	0.006330445900404307
5.32950e-06	0.006345605338377962
5.32975e-06	0.006360764776351616
5.33000e-06	0.006375924214325322
5.33025e-06	0.0063910836522989775
5.33050e-06	0.006406243090272632
5.33075e-06	0.006421402528246338
5.33100e-06	0.006436561966219993
5.33125e-06	0.006451721404193648
5.33150e-06	0.006466880842167354
5.33175e-06	0.006482040280141009
5.33200e-06	0.006497199718114664
5.33225e-06	0.006512359156088369
5.33250e-06	0.006527518594062024
5.33275e-06	0.0065426780320357305
5.33300e-06	0.00655720548627181
5.33325e-06	0.0065648113183419225
5.33350e-06	0.00657241715041206
5.33375e-06	0.0065800229824821725
5.33400e-06	0.006587628814552285
5.33425e-06	0.0065952346466224224
5.33450e-06	0.006602840478692535
5.33475e-06	0.006610446310762647
5.33500e-06	0.006618052142832785
5.33525e-06	0.006625657974902897
5.33550e-06	0.00663326380697301
5.33575e-06	0.006640869639043148
5.33600e-06	0.0066484754711132596
5.33625e-06	0.006656081303183372
5.33650e-06	0.00666368713525351
5.33675e-06	0.0066698939333813744
5.33700e-06	0.006660778210109178
5.33725e-06	0.006651662486837014
5.33750e-06	0.006642546763564849
5.33775e-06	0.006633431040292654
5.33800e-06	0.006624315317020489
5.33825e-06	0.006615199593748324
5.33850e-06	0.006606083870476129
5.33875e-06	0.006596968147203964
5.33900e-06	0.006587852423931799
5.33925e-06	0.006578736700659604
5.33950e-06	0.006569620977387439
5.33975e-06	0.006560505254115275
5.34000e-06	0.006551389530843079
5.34025e-06	0.006542273807570914
5.34050e-06	0.006532579133140376
5.34075e-06	0.006516543660789224
5.34100e-06	0.006500508188438127
5.34125e-06	0.006484472716086975
5.34150e-06	0.006468437243735878
5.34175e-06	0.006452401771384781
5.34200e-06	0.006436366299033629
5.34225e-06	0.0064203308266825325
5.34250e-06	0.006404295354331435
5.34275e-06	0.006388259881980283
5.34300e-06	0.006372676474407326
5.34325e-06	0.006361039430212964
5.34350e-06	0.006349402386018564
5.34375e-06	0.006337765341824203
5.34400e-06	0.006326128297629841
5.34425e-06	0.006314491253435441
5.34450e-06	0.006302854209241079
5.34475e-06	0.0062912171650467185
5.34500e-06	0.006279580120852318
5.34525e-06	0.006267943076657957
5.34550e-06	0.006257242399836623
5.34575e-06	0.004861196323453663
5.34600e-06	-0.00021121756771423292
5.34625e-06	-0.0037637071007330914
5.34650e-06	-0.0036240516284526073
5.34675e-06	-0.0016538123607094737
5.34700e-06	0.0022457210678868966
5.34725e-06	0.0055498694193776305
5.34750e-06	0.006235433178860301
5.34775e-06	0.005079670413208806
5.34800e-06	0.0024812688238011753
5.34825e-06	0.0001900532409445141
5.34850e-06	-9.794647673198311e-05
5.34875e-06	0.0013069302259014841
5.34900e-06	0.003522322221308439
5.34925e-06	0.0054802355929682075
5.34950e-06	0.006195472300815832
5.34975e-06	0.00553793027922535
5.35000e-06	0.003935039791918381
5.35025e-06	0.0028132220531907346
5.35050e-06	0.0025919351735740727
5.35075e-06	0.003695200501695827
5.35100e-06	0.005305815033753351
5.35125e-06	0.006533891327507759
5.35150e-06	0.007034039357896048
5.35175e-06	0.0064984556282847074
5.35200e-06	0.0054414429338989646
5.35225e-06	0.004596648147525448
5.35250e-06	0.004398966088003741
5.35275e-06	0.005080927332916964
5.35300e-06	0.006092636973646793
5.35325e-06	0.006863975913996275
5.35350e-06	0.0071785932392054025
5.35375e-06	0.00684370105919318
5.35400e-06	0.006181470287352223
5.35425e-06	0.005651427453944592
5.35450e-06	0.005525867369031954
5.35475e-06	0.005950104966043427
5.35500e-06	0.006579291414403274
5.35525e-06	0.007056191417457921
5.35550e-06	0.007245385423468293
5.35575e-06	0.007026237326859943
5.35600e-06	0.006600677067797804
5.35625e-06	0.006256651339097859
5.35650e-06	0.00616480243749943
5.35675e-06	0.006416222530627755
5.35700e-06	0.006794969290557171
5.35725e-06	0.0070773632734743835
5.35750e-06	0.007178681820698968
5.35775e-06	0.007023471500303613
5.35800e-06	0.006738329723843224
5.35825e-06	0.006503721867501979
5.35850e-06	0.006426620895310467
5.35875e-06	0.0065641600566528424
5.35900e-06	0.0067811520993495125
5.35925e-06	0.006937574472620712
5.35950e-06	0.006980456417867891
5.35975e-06	0.006862637522913472
5.36000e-06	0.006663520641738799
5.36025e-06	0.006496241485812294
5.36050e-06	0.006427892901139446
5.36075e-06	0.0064943435994188415
5.36100e-06	0.006610994712547531
5.36125e-06	0.006690225973228498
5.36150e-06	0.006698952733135317
5.36175e-06	0.006607731657896631
5.36200e-06	0.006466398845895657
5.36225e-06	0.0063459136469235684
5.36250e-06	0.006288390063489199
5.36275e-06	0.006316379704374443
5.36300e-06	0.0063769748610071
5.36325e-06	0.00641538074681555
5.36350e-06	0.006410966776122665
5.36375e-06	0.006345384689843502
5.36400e-06	0.00624994643251934
5.36425e-06	0.0061691872823023824
5.36450e-06	0.006130378332055342
5.36475e-06	0.006155744532189586
5.36500e-06	0.006181080129314738
5.36525e-06	0.006204151724348285
5.36550e-06	0.006200150195106563
5.36575e-06	0.006150402202799615
5.36600e-06	0.006101460512119661
5.36625e-06	0.006062527503210304
5.36650e-06	0.006027816043129725
5.36675e-06	0.006045506981095893
5.36700e-06	0.0060626347924509424
5.36725e-06	0.006072772471506276
5.36750e-06	0.006080049437520739
5.36775e-06	0.006051816160840627
5.36800e-06	0.006024117560214725
5.36825e-06	0.006003055933020369
5.36850e-06	0.005984659319307496
5.36875e-06	0.005999343715172102
5.36900e-06	0.006013687173033327
5.36925e-06	0.006023798542225927
5.36950e-06	0.006032121466711357
5.36975e-06	0.006018244294688251
5.37000e-06	0.006005174859260499
5.37025e-06	0.006002131917968371
5.37050e-06	0.005999088976676234
5.37075e-06	0.005997446193927118
5.37100e-06	0.0060124057217855464
5.37125e-06	0.006017708362084549
5.37150e-06	0.006023011002383552
5.37175e-06	0.006027289688798244
5.37200e-06	0.00601968399809371
5.37225e-06	0.006022331981003985
5.37250e-06	0.006024979963914269
5.37275e-06	0.006027627946824545
5.37300e-06	0.0060302287406934
5.37325e-06	0.006032243773498909
5.37350e-06	0.006034258806304411
5.37375e-06	0.0060362738391099135
5.37400e-06	0.006038323082596242
5.37425e-06	0.006040796985795279
5.37450e-06	0.006043270888994315
5.37475e-06	0.006045744792193359
5.37500e-06	0.006048218695392395
5.37525e-06	0.006055220931134517
5.37550e-06	0.006065576306841671
5.37575e-06	0.006075931682548824
5.37600e-06	0.006086287058256012
5.37625e-06	0.0060981787822203095
5.37650e-06	0.00612914131079251
5.37675e-06	0.0061601038393648165
5.37700e-06	0.006191066367937017
5.37725e-06	0.0062220288965092185
5.37750e-06	0.006252991425081524
5.37775e-06	0.0062839539536537255
5.37800e-06	0.006314916482225926
5.37825e-06	0.0063458790107982326
5.37850e-06	0.006376841539370433
5.37875e-06	0.006407804067942635
5.37900e-06	0.006450782694938309
5.37925e-06	0.0065026590032460614
5.37950e-06	0.006554535311553989
5.37975e-06	0.006606411619861743
5.38000e-06	0.006658287928169496
5.38025e-06	0.006710164236477424
5.38050e-06	0.0067620405447851775
5.38075e-06	0.00681391685309293
5.38100e-06	0.006865793161400858
5.38125e-06	0.006917669469708612
5.38150e-06	0.006969419608777467
5.38175e-06	0.00701960359974789
5.38200e-06	0.007069787590718145
5.38225e-06	0.007119971581688399
5.38250e-06	0.007170155572658822
5.38275e-06	0.007220339563629077
5.38300e-06	0.00727052355459933
5.38325e-06	0.007320707545569754
5.38350e-06	0.007370891536540009
5.38375e-06	0.007421075527510432
5.38400e-06	0.007469207780271428
5.38425e-06	0.007491871654823082
5.38450e-06	0.007514535529374812
5.38475e-06	0.0075371994039264666
5.38500e-06	0.00755986327847812
5.38525e-06	0.007582527153029851
5.38550e-06	0.007605191027581505
5.38575e-06	0.007627854902133159
5.38600e-06	0.007650518776684889
5.38625e-06	0.007673182651236543
5.38650e-06	0.007693110411002387
5.38675e-06	0.007679074575478842
5.38700e-06	0.007665038739955345
5.38725e-06	0.0076510029044318485
5.38750e-06	0.007636967068908303
5.38775e-06	0.007622931233384807
5.38800e-06	0.00760889539786131
5.38825e-06	0.007594859562337765
5.38850e-06	0.007580823726814268
5.38875e-06	0.007566787891290724
5.38900e-06	0.007552752055767227
5.38925e-06	0.0075369063551637945
5.38950e-06	0.007498594665410241
5.38975e-06	0.007460282975656817
5.39000e-06	0.007421971285903392
5.39025e-06	0.007383659596149839
5.39050e-06	0.007345347906396415
5.39075e-06	0.007307036216642991
5.39100e-06	0.007268724526889437
5.39125e-06	0.007230412837136013
5.39150e-06	0.007192101147382589
5.39175e-06	0.007153789457629035
5.39200e-06	0.007115372233697235
5.39225e-06	0.007075645006200985
5.39250e-06	0.007035917778704602
5.39275e-06	0.006996190551208353
5.39300e-06	0.006956463323711968
5.39325e-06	0.006916736096215719
5.39350e-06	0.00687700886871947
5.39375e-06	0.006838003074738575
5.39400e-06	0.0068079524883617034
5.39425e-06	0.006777901901984832
5.39450e-06	0.0067478513156078584
5.39475e-06	0.0067178007292309876
5.39500e-06	0.006687750142854116
5.39525e-06	0.006657699556477143
5.39550e-06	0.006627792569407376
5.39575e-06	0.006599668091160892
5.39600e-06	0.006571543612914312
5.39625e-06	0.006543419134667827
5.39650e-06	0.006515294656421343
5.39675e-06	0.006487170178174764
5.39700e-06	0.006459045699928279
5.39725e-06	0.006430921221681699
5.39750e-06	0.006402796743435214
5.39775e-06	0.00637467226518873
5.39800e-06	0.0063465477869421505
5.39825e-06	0.0063184233086956655
5.39850e-06	0.006290298830449181
5.39875e-06	0.006262174352202601
5.39900e-06	0.006233925683915004
5.39925e-06	0.0062041354354592584
5.39950e-06	0.006174345187003412
5.39975e-06	0.006144554938547666
5.40000e-06	0.00611476469009192
5.40025e-06	0.006084974441636073
5.40050e-06	0.0060551841931803276
5.40075e-06	0.006025393944724582
