Time(s)	Current(A)
6.25000e-06	0.00038540503615851863
6.25025e-06	0.00035795533853655363
6.25050e-06	0.00033050564091449566
6.25075e-06	0.00030305594329253067
6.25100e-06	0.0002756062456704727
6.25125e-06	0.0002482549993513116
6.25150e-06	0.0002221491690218413
6.25175e-06	0.00019614543290452882
6.25200e-06	0.0001715193619188086
6.25225e-06	0.00014808299244660407
6.25250e-06	0.00012602098722602444
6.25275e-06	0.00010551527969924075
6.25300e-06	8.669387189280785e-05
6.25325e-06	6.941862974122419e-05
6.25350e-06	5.333095002072167e-05
6.25375e-06	3.8260755970085274e-05
6.25400e-06	2.4265105941734022e-05
6.25425e-06	1.1434149203856331e-05
6.25450e-06	-1.4198767372291408e-07
6.25475e-06	-1.0374896890704145e-05
6.25500e-06	-1.9209965420835365e-05
6.25525e-06	-2.6759293562068337e-05
6.25550e-06	-3.3273052717940085e-05
6.25575e-06	-3.88833140169142e-05
6.25600e-06	-4.3579868099681634e-05
6.25625e-06	-4.73317817654509e-05
6.25650e-06	-5.0108130422019486e-05
6.25675e-06	-5.187907941273567e-05
6.25700e-06	-5.2635964324627664e-05
6.25725e-06	-5.2474541932501945e-05
6.25750e-06	-5.157705425375472e-05
6.25775e-06	-5.005174160177354e-05
6.25800e-06	-4.791772785038117e-05
6.25825e-06	-4.518114689835244e-05
6.25850e-06	-4.184813814809282e-05
6.25875e-06	-3.792553453319833e-05
6.25900e-06	-3.343341338062017e-05
6.25925e-06	-2.845727253234731e-05
6.25950e-06	-2.3136768188633384e-05
6.25975e-06	-1.756519556587166e-05
6.26000e-06	-1.1780018276652622e-05
6.26025e-06	-5.81056263446858e-06
6.26050e-06	3.1383750209852153e-07
6.26075e-06	6.564030690744901e-06
6.26100e-06	1.2907796253399447e-05
6.26125e-06	1.9244950135522347e-05
6.26150e-06	2.5484908802095748e-05
6.26175e-06	3.153611520143737e-05
6.26200e-06	3.734964535264966e-05
6.26225e-06	4.288167758225655e-05
6.26250e-06	4.808838569261991e-05
6.26275e-06	5.2926336145885386e-05
6.26300e-06	5.735986739321258e-05
6.26325e-06	6.139286940447751e-05
6.26350e-06	6.506557320920857e-05
6.26375e-06	6.839688279698422e-05
6.26400e-06	7.137562416440507e-05
6.26425e-06	7.398604379717896e-05
6.26450e-06	7.621237629426548e-05
6.26475e-06	7.802450800786735e-05
6.26500e-06	7.927081406355844e-05
6.26525e-06	8.046375324734135e-05
6.26550e-06	8.098159770265801e-05
6.26575e-06	8.145081822622624e-05
6.26600e-06	8.130494255201898e-05
6.26625e-06	8.111109111590191e-05
6.26650e-06	8.031034287663057e-05
6.26675e-06	7.94630260862817e-05
6.26700e-06	7.802661381004722e-05
6.26725e-06	7.655079696518452e-05
6.26750e-06	7.457650952231484e-05
6.26775e-06	7.256921445675524e-05
6.26800e-06	7.014437061458335e-05
6.26825e-06	6.769035166711703e-05
6.26850e-06	6.486726556089863e-05
6.26875e-06	6.201470433983389e-05
6.26900e-06	5.878928081808359e-05
6.26925e-06	5.55638572963333e-05
6.26950e-06	5.231790356090511e-05
6.26975e-06	4.881224116129317e-05
6.27000e-06	4.5306578761681236e-05
6.27025e-06	4.180091636205742e-05
6.27050e-06	3.826615757011546e-05
6.27075e-06	3.470973912961292e-05
6.27100e-06	3.115332068909833e-05
6.27125e-06	2.7608780682424512e-05
6.27150e-06	2.421450370915696e-05
6.27175e-06	2.083349016443283e-05
6.27200e-06	1.7631467116679522e-05
6.27225e-06	1.4584182310067578e-05
6.27250e-06	1.1715651661824334e-05
6.27275e-06	9.047365608751307e-06
6.27300e-06	6.551553528506935e-06
6.27325e-06	3.966843776605783e-06
6.27350e-06	8.686163149154373e-07
6.27375e-06	-2.945918655914089e-06
6.27400e-06	-7.449386792703718e-06
6.27425e-06	-1.2582465472335419e-05
6.27450e-06	-1.8285839014510457e-05
6.27475e-06	-2.4501774814430177e-05
6.27500e-06	-3.1203399272565435e-05
6.27525e-06	-3.85101616988145e-05
6.27550e-06	-4.664375207898587e-05
6.27575e-06	-5.5686888888409874e-05
6.27600e-06	-6.557811338736364e-05
6.27625e-06	-7.623596368781205e-05
6.27650e-06	-8.757897586298757e-05
6.27675e-06	-9.952669322120926e-05
6.27700e-06	-0.00011201799373859244
6.27725e-06	-0.00012510840344659503
6.27750e-06	-0.00013913360482731353
6.27775e-06	-0.00015324627715448288
6.27800e-06	-0.00016846546317974043
6.27825e-06	-0.0001837540781804164
6.27850e-06	-0.00019992097466210425
6.27875e-06	-0.00021608787114384684
6.27900e-06	-0.00023231018354098637
6.27925e-06	-0.00024923351121255093
6.27950e-06	-0.00026615683888417277
6.27975e-06	-0.00028308016655573736
6.28000e-06	-0.0003000034942273019
6.28025e-06	-0.00031674377188605163
6.28050e-06	-0.00033334778526489326
6.28075e-06	-0.00034995179864379117
6.28100e-06	-0.0003665558120226328
6.28125e-06	-0.0003830498037828555
6.28150e-06	-0.00039815201423754943
6.28175e-06	-0.0004132542246921922
6.28200e-06	-0.00042820299088694577
6.28225e-06	-0.000441210676273876
6.28250e-06	-0.0004542183616607622
6.28275e-06	-0.00046704050487708106
6.28300e-06	-0.00047751552643127365
6.28325e-06	-0.0004877811081055272
6.28350e-06	-0.0004953972603939194
6.28375e-06	-0.0005027819712741657
6.28400e-06	-0.0005072389318703099
6.28425e-06	-0.0005114642591658952
6.28450e-06	-0.0005127594087250547
6.28475e-06	-0.0005138204687610843
6.28500e-06	-0.0005119202796705577
6.28525e-06	-0.0005097720334232512
6.28550e-06	-0.0005044858464897337
6.28575e-06	-0.0004989581768457998
6.28600e-06	-0.0004903757337304984
6.28625e-06	-0.0004815720514855794
6.28650e-06	-0.00046996967850672616
6.28675e-06	-0.00045816487931471273
6.28700e-06	-0.00044379937412042126
6.28725e-06	-0.0004292430500701614
6.28750e-06	-0.00041227285391339885
6.28775e-06	-0.00039513631477470644
6.28800e-06	-0.00037589552507713575
6.28825e-06	-0.000356494938415591
6.28850e-06	-0.00033507290878748304
6.28875e-06	-0.00031365087915930255
6.28900e-06	-0.00029209785490375977
6.28925e-06	-0.00026888773928933395
6.28950e-06	-0.0002456776236749868
6.28975e-06	-0.00022241144030329282
6.29000e-06	-0.00019843599581125893
6.29025e-06	-0.00017446055131930627
6.29050e-06	-0.0001505201085318233
6.29075e-06	-0.0001270224397965264
6.29100e-06	-0.00010352477106130909
6.29125e-06	-8.00956361591686e-05
6.29150e-06	-5.7583977724842014e-05
6.29175e-06	-3.577327809833092e-05
6.29200e-06	-1.4818968724005854e-05
6.29225e-06	5.121693652096621e-06
6.29250e-06	2.389146634925556e-05
6.29275e-06	4.133670385980319e-05
6.29300e-06	5.737422787264135e-05
6.29325e-06	7.226308262972582e-05
6.29350e-06	8.652819888624907e-05
6.29375e-06	0.00010041936900185883
6.29400e-06	0.00011387641035117613
6.29425e-06	0.0001267949234166433
6.29450e-06	0.00013907054913811398
6.29475e-06	0.00015057658045493228
6.29500e-06	0.00016101777608217648
6.29525e-06	0.00017140355478703135
6.29550e-06	0.00018108830548088157
6.29575e-06	0.00019072886868830757
6.29600e-06	0.00019981045704785722
6.29625e-06	0.00020889204540740686
6.29650e-06	0.00021788531458500393
6.29675e-06	0.0002257613398261827
6.29700e-06	0.00023363736506736146
6.29725e-06	0.00024146099657969668
6.29750e-06	0.00024862184369378533
6.29775e-06	0.00025578269080787393
6.29800e-06	0.000262836031988754
6.29825e-06	0.00026852941546483
6.29850e-06	0.00027422279894092537
6.29875e-06	0.0002799161824170014
6.29900e-06	0.0002856095658930774
6.29925e-06	0.0002913029493691727
6.29950e-06	0.00029699633284524876
6.29975e-06	0.00030268971632132477
6.30000e-06	0.0003083830997974201
6.30025e-06	0.00031407648327349614
6.30050e-06	0.00031976986674957215
6.30075e-06	0.00032546325022566745
6.30100e-06	0.0003309741008655504
6.30125e-06	0.00033417589814026786
6.30150e-06	0.00033737769541499613
6.30175e-06	0.00034057949268971355
6.30200e-06	0.00034378128996443103
6.30225e-06	0.0003469830872391593
6.30250e-06	0.0003501848845138767
6.30275e-06	0.00035338668178860503
6.30300e-06	0.00035658847906332245
6.30325e-06	0.00035979027633803993
6.30350e-06	0.0003629920736127682
6.30375e-06	0.0003661938708874856
6.30400e-06	0.00036913962611412836
6.30425e-06	0.0003688464312157232
6.30450e-06	0.000368553236317319
6.30475e-06	0.0003682600414189148
6.30500e-06	0.0003679668465205097
6.30525e-06	0.00036767365162210545
6.30550e-06	0.0003673804567237013
6.30575e-06	0.00036708726182529614
6.30600e-06	0.0003667940669268919
6.30625e-06	0.00036650087202848774
6.30650e-06	0.00036598725183710484
6.30675e-06	0.00036268523600727347
6.30700e-06	0.00035938322017743093
6.30725e-06	0.00035608120434759956
6.30750e-06	0.00035277918851776824
6.30775e-06	0.00034947717268792565
6.30800e-06	0.00034617515685809433
6.30825e-06	0.00034287314102826296
6.30850e-06	0.0003395711251984204
6.30875e-06	0.00033626910936858904
6.30900e-06	0.00033287356756490775
6.30925e-06	0.00032829491553822826
6.30950e-06	0.00032371626351156434
6.30975e-06	0.0003191376114849004
6.31000e-06	0.000314558959458221
6.31025e-06	0.00030998030743155706
6.31050e-06	0.0003054016554048931
6.31075e-06	0.0003008489819523897
6.31100e-06	0.00029662493931139076
6.31125e-06	0.0002924008966703775
6.31150e-06	0.00028817685402937853
6.31175e-06	0.0002839528113883796
6.31200e-06	0.0002797287687473663
6.31225e-06	0.00027550472610636734
6.31250e-06	0.0002713543972039269
6.31275e-06	0.00026813655233827373
6.31300e-06	0.00026491870747263153
6.31325e-06	0.00026170086260698933
6.31350e-06	0.0002584830177413362
6.31375e-06	0.000255265172875694
6.31400e-06	0.0002520473280100517
6.31425e-06	0.0002486368914218121
6.31450e-06	0.0002450830876086689
6.31475e-06	0.0002415292837955257
6.31500e-06	0.00023797547998237047
6.31525e-06	0.00023442167616922726
6.31550e-06	0.00023086787235607203
6.31575e-06	0.00022724238851513917
6.31600e-06	0.00022271014722353982
6.31625e-06	0.00021817790593192513
6.31650e-06	0.00021364566464032579
6.31675e-06	0.00020911342334872644
6.31700e-06	0.00020458118205711172
6.31725e-06	0.00020004894076551237
6.31750e-06	0.00019551669947391302
6.31775e-06	0.00019093031174737866
6.31800e-06	0.00018565896776739414
6.31825e-06	0.00018038762378740962
6.31850e-06	0.00017511627980740723
6.31875e-06	0.0001698449358274227
6.31900e-06	0.0001645735918474382
6.31925e-06	0.0001593022478674358
6.31950e-06	0.00015403090388745128
6.31975e-06	0.00014876026012083316
6.32000e-06	0.00014349847410335254
6.32025e-06	0.00013823668808587189
6.32050e-06	0.00013297490206837343
6.32075e-06	0.0001277131160508928
6.32100e-06	0.00012245133003341218
6.32125e-06	0.00011762227753680455
6.32150e-06	0.00011311535624697582
6.32175e-06	0.0001086084349571471
6.32200e-06	0.00010410151366730311
6.32225e-06	9.959459237747438e-05
6.32250e-06	9.515253873441786e-05
6.32275e-06	9.153106543716166e-05
6.32300e-06	8.791729848490283e-05
6.32325e-06	8.435911391077885e-05
6.32350e-06	8.02090660284557e-05
6.32375e-06	7.521798518301836e-05
6.32400e-06	6.942030374819888e-05
6.32425e-06	6.288987730460849e-05
6.32450e-06	5.570052851773284e-05
6.32475e-06	4.7924138461940756e-05
6.32500e-06	3.959447505978455e-05
6.32525e-06	3.05644823635071e-05
6.32550e-06	2.0560229019534842e-05
6.32575e-06	9.47857287936647e-06
6.32600e-06	-2.605970312587221e-06
6.32625e-06	-1.5594211902892572e-05
6.32650e-06	-2.9386975892617438e-05
6.32675e-06	-4.3886316716319315e-05
6.32700e-06	-5.9018166064507445e-05
6.32725e-06	-7.482172762696078e-05
6.32750e-06	-9.141565609524244e-05
6.32775e-06	-0.00010883345526690848
6.32800e-06	-0.00012718612702611155
6.32825e-06	-0.00014560924034877633
6.32850e-06	-0.00016492344445860898
6.32875e-06	-0.00018429673703193464
6.32900e-06	-0.00020441750287124053
6.32925e-06	-0.00022453826871047825
6.32950e-06	-0.000244659034549716
6.32975e-06	-0.00026479909356950704
6.33000e-06	-0.00028518321269459013
6.33025e-06	-0.00030556733181967327
6.33050e-06	-0.0003259514509448254
6.33075e-06	-0.0003462514245471629
6.33100e-06	-0.00036548695130199415
6.33125e-06	-0.0003847224780568906
6.33150e-06	-0.00040382464102364714
6.33175e-06	-0.0004212397425859634
6.33200e-06	-0.0004386548441483386
6.33225e-06	-0.00045585726213801686
6.33250e-06	-0.0004703692178072158
6.33275e-06	-0.00048488117347636554
6.33300e-06	-0.0004991520803243898
6.33325e-06	-0.0005103737024412916
6.33350e-06	-0.0005213727379168624
6.33375e-06	-0.0005295560365493649
6.33400e-06	-0.0005375843464980736
6.33425e-06	-0.0005436520385734716
6.33450e-06	-0.0005461974803581867
6.33475e-06	-0.004607511056384607
6.33500e-06	-0.014600892022001457
6.33525e-06	-0.014288845356374247
6.33550e-06	-0.012236294209838421
6.33575e-06	-0.007580213617715995
6.33600e-06	6.530565967843781e-05
6.33625e-06	0.001296158223426035
6.33650e-06	0.0006673767972779762
6.33675e-06	-0.002100060439507967
6.33700e-06	-0.007735248796767768
6.33725e-06	-0.008735297408668187
6.33750e-06	-0.006955530933540659
6.33775e-06	-0.0037540878448167787
6.33800e-06	3.2995956769621936e-06
6.33825e-06	0.001981893772801805
6.33850e-06	0.0016240542616741981
6.33875e-06	-0.000505050638589407
6.33900e-06	-0.003235733669430239
6.33925e-06	-0.004437212691401825
6.33950e-06	-0.003698002973227568
6.33975e-06	-0.0017627337587018978
6.34000e-06	0.0005231884812096764
6.34025e-06	0.0017444467719113055
6.34050e-06	0.0015073630721773902
6.34075e-06	0.00016305203184123224
6.34100e-06	-0.0015562057012236822
6.34125e-06	-0.002316133627495464
6.34150e-06	-0.001859440891477508
6.34175e-06	-0.0006529708322835817
6.34200e-06	0.0007733896464932749
6.34225e-06	0.001532860317888003
6.34250e-06	0.0013786930513143114
6.34275e-06	0.0005307015581479751
6.34300e-06	-0.0005524641839986828
6.34325e-06	-0.0010348620851200088
6.34350e-06	-0.0007550522211536826
6.34375e-06	-5.32384287168456e-06
6.34400e-06	0.0008823795299934965
6.34425e-06	0.0013525455512920055
6.34450e-06	0.001250617019418145
6.34475e-06	0.0007142978967530434
6.34500e-06	3.0884856716022625e-05
6.34525e-06	-0.00027602272533517474
6.34550e-06	-0.00010535713781250537
6.34575e-06	0.0003597410643187732
6.34600e-06	0.0009113128113206175
6.34625e-06	0.0012013834477293778
6.34650e-06	0.0011331587221591933
6.34675e-06	0.0007929184190176892
6.34700e-06	0.00036063648600342257
6.34725e-06	0.00016428472350059228
6.34750e-06	0.00026714469229474424
6.34775e-06	0.0005544736757072049
6.34800e-06	0.0008959945800230294
6.34825e-06	0.001073741377119734
6.34850e-06	0.001027100497460849
6.34875e-06	0.0008101363887608862
6.34900e-06	0.0005355961344800193
6.34925e-06	0.00040891840872985755
6.34950e-06	0.00046972933868128164
6.34975e-06	0.0006461426395166897
6.35000e-06	0.0008565485135726328
6.35025e-06	0.0009644191085190848
6.35050e-06	0.0009318000850252966
6.35075e-06	0.0007925715515627284
6.35100e-06	0.0006173676971155182
6.35125e-06	0.000534875631143156
6.35150e-06	0.0005699107183671448
6.35175e-06	0.0006774381195754156
6.35200e-06	0.0008063366808701907
6.35225e-06	0.000871090931523019
6.35250e-06	0.0008479366793971874
6.35275e-06	0.0007581070365070336
6.35300e-06	0.0006458682239124745
6.35325e-06	0.0005918805181706719
6.35350e-06	0.0006117496099758094
6.35375e-06	0.0006772937479472107
6.35400e-06	0.0007564843139666153
6.35425e-06	0.00079574164287111
6.35450e-06	0.0007801701182778484
6.35475e-06	0.0007230603829821427
6.35500e-06	0.0006521291531222674
6.35525e-06	0.0006178868954946611
6.35550e-06	0.0006300911120875045
6.35575e-06	0.0006710712581554735
6.35600e-06	0.0007207488943891406
6.35625e-06	0.0007455484500421211
6.35650e-06	0.0007361280249071771
6.35675e-06	0.0007008015840123702
6.35700e-06	0.0006569183525103252
6.35725e-06	0.0006361033174216563
6.35750e-06	0.0006444522230087768
6.35775e-06	0.0006708800349604575
6.35800e-06	0.0007027945151492549
6.35825e-06	0.0007191504883633714
6.35850e-06	0.0007140838737731131
6.35875e-06	0.0006927901707691472
6.35900e-06	0.0006661239653959893
6.35925e-06	0.000653880680084408
6.35950e-06	0.0006598631525371596
6.35975e-06	0.0006771124063050468
6.36000e-06	0.0006977260190195527
6.36025e-06	0.000708507635456749
6.36050e-06	0.0007057710743422385
6.36075e-06	0.0006927578638657808
6.36100e-06	0.000676253969613864
6.36125e-06	0.000668644978556751
6.36150e-06	0.0006722980874598314
6.36175e-06	0.0006827447364423757
6.36200e-06	0.000695243696574155
6.36225e-06	0.0007014132273120725
6.36250e-06	0.0006988434893805972
6.36275e-06	0.0006896124783103872
6.36300e-06	0.0006778576366575952
6.36325e-06	0.0006709554835340319
6.36350e-06	0.0006698860379285693
6.36375e-06	0.000671148887141917
6.36400e-06	0.0006728185156875589
6.36425e-06	0.0006692576281604061
6.36450e-06	0.0006586364852040078
6.36475e-06	0.0006426245122983827
6.36500e-06	0.0006238990864564736
6.36525e-06	0.0006071663092233813
6.36550e-06	0.0005931251895164387
6.36575e-06	0.0005799806751222166
6.36600e-06	0.0005658753967361992
6.36625e-06	0.0005476996606577124
6.36650e-06	0.0005246818704135248
6.36675e-06	0.0004977532424562946
6.36700e-06	0.0004686765975672831
6.36725e-06	0.00044048527024956443
6.36750e-06	0.000413702478287277
6.36775e-06	0.0003872891168671158
6.36800e-06	0.00036016721729885355
6.36825e-06	0.0003304745015010153
6.36850e-06	0.00029781331729498896
6.36875e-06	0.0002628526616306898
6.36900e-06	0.00022678240599232876
6.36925e-06	0.0001915881137664147
6.36950e-06	0.00015768287722965908
6.36975e-06	0.00012446021443474195
6.37000e-06	9.142703944825656e-05
6.37025e-06	5.7458242982901545e-05
6.37050e-06	2.2352441070693704e-05
6.37075e-06	-1.3359434350321039e-05
6.37100e-06	-4.884652170810285e-05
6.37125e-06	-8.277963532146804e-05
6.37150e-06	-0.0001148146434169783
6.37175e-06	-0.0001452204005953423
6.37200e-06	-0.00017428095556041914
6.37225e-06	-0.00020258801318930088
6.37250e-06	-0.000230158498910356
6.37275e-06	-0.0002565908493841875
6.37300e-06	-0.000281356137822144
6.37325e-06	-0.000303839312231548
6.37350e-06	-0.00032419682276279275
6.37375e-06	-0.000342447577613111
6.37400e-06	-0.0003598165981105374
6.37425e-06	-0.00037593947668083873
6.37450e-06	-0.0003912629344546655
6.37475e-06	-0.000404974084744645
6.37500e-06	-0.0004176509129363036
6.37525e-06	-0.00042814228991490297
6.37550e-06	-0.0004372316635490998
6.37575e-06	-0.000444682516128492
6.37600e-06	-0.0004510822301671993
6.37625e-06	-0.00045636296070376603
6.37650e-06	-0.00046092584469087296
6.37675e-06	-0.00046422199353962314
6.37700e-06	-0.0004667055107039876
6.37725e-06	-0.00046734912536100173
6.37750e-06	-0.0004668124119222723
6.37775e-06	-0.00046627569848354286
6.37800e-06	-0.0004643622391933916
6.37825e-06	-0.0004615655745145895
6.37850e-06	-0.0004587689098357874
6.37875e-06	-0.0004548690530338595
6.37900e-06	-0.0004502614801151017
6.37925e-06	-0.00044565390719632827
6.37950e-06	-0.0004399698218054027
6.37975e-06	-0.00043359513573798877
6.38000e-06	-0.00042722044967055325
6.38025e-06	-0.0004208457636031393
6.38050e-06	-0.00041447107753572537
6.38075e-06	-0.0004080773660889293
6.38100e-06	-0.0004015284433259752
6.38125e-06	-0.00039497952056302113
6.38150e-06	-0.00038843059780004486
6.38175e-06	-0.00038188167503709077
6.38200e-06	-0.0003753327522741367
6.38225e-06	-0.0003696665381577508
6.38250e-06	-0.0003645665963366028
6.38275e-06	-0.00035946665451545476
6.38300e-06	-0.00035478372493674595
6.38325e-06	-0.000350368315655468
6.38350e-06	-0.00034595290637417516
6.38375e-06	-0.0003415374970928973
6.38400e-06	-0.0003371220878116194
6.38425e-06	-0.00033270667853032654
6.38450e-06	-0.0003281745083174369
6.38475e-06	-0.00032268978848508216
6.38500e-06	-0.0003172050686527089
6.38525e-06	-0.00031172034882035414
6.38550e-06	-0.0003062356289879994
6.38575e-06	-0.0003007509091556261
6.38600e-06	-0.00029526618932327134
6.38625e-06	-0.0002887595814212699
6.38650e-06	-0.0002815974153066375
6.38675e-06	-0.00027443524919202944
6.38700e-06	-0.0002672730830774213
6.38725e-06	-0.00026011091696278893
6.38750e-06	-0.00025294875084818085
6.38775e-06	-0.00024564955889787326
6.38800e-06	-0.00023723249382162764
6.38825e-06	-0.00022881542874538202
6.38850e-06	-0.00022039836366910792
6.38875e-06	-0.0002119812985928623
6.38900e-06	-0.00020356423351661668
6.38925e-06	-0.00019514716844034255
6.38950e-06	-0.00018654060245122398
6.38975e-06	-0.00017781246847103918
6.39000e-06	-0.0001690843344908248
6.39025e-06	-0.00016035620051064003
6.39050e-06	-0.00015162806653045522
6.39075e-06	-0.00014311843334696486
6.39100e-06	-0.00013503878996611358
6.39125e-06	-0.0001271450695960171
6.39150e-06	-0.00011925134922589389
6.39175e-06	-0.00011178468386027822
6.39200e-06	-0.00010459198139107072
6.39225e-06	-9.776704681305e-05
6.39250e-06	-9.147500301296099e-05
6.39275e-06	-8.580776633177679e-05
6.39300e-06	-8.041914119100925e-05
6.39325e-06	-7.483412702565103e-05
6.39350e-06	-6.833044253610245e-05
