Time(s)	Current(A)
1.05000e-05	0.0032605546419833984
1.05002e-05	0.0032372183696889392
1.05005e-05	0.0032138820973943217
1.05008e-05	0.0031905458250997046
1.05010e-05	0.0031672095528052454
1.05013e-05	0.003143873280510628
1.05015e-05	0.0031205370082160104
1.05017e-05	0.0030951353524557687
1.05020e-05	0.0030634640319684224
1.05023e-05	0.0030317927114810765
1.05025e-05	0.0030001213909939452
1.05028e-05	0.0029684500705065993
1.05030e-05	0.0029367787500192534
1.05033e-05	0.002905107429531907
1.05035e-05	0.00287441771119582
1.05038e-05	0.00284670773801808
1.05040e-05	0.0028189977648403405
1.05043e-05	0.002791287791662789
1.05045e-05	0.0027635778184850494
1.05048e-05	0.0027358678453073097
1.05050e-05	0.0027081578721297583
1.05053e-05	0.002682942374115985
1.05055e-05	0.002665299088821611
1.05058e-05	0.0026476558035273567
1.05060e-05	0.0026327462075973057
1.05063e-05	0.002626134981470724
1.05065e-05	0.0026195237553441877
1.05068e-05	0.002615665642321235
1.05070e-05	0.0026201648616792123
1.05073e-05	0.0026246640810371597
1.05075e-05	0.0026321156895242432
1.05078e-05	0.002648529551409947
1.05080e-05	0.0026649434132955396
1.05083e-05	0.002684285778880528
1.05085e-05	0.0027125178914074216
1.05087e-05	0.002740750003934124
1.05090e-05	0.002773153912552716
1.05093e-05	0.002818221698481363
1.05095e-05	0.0028632894844097044
1.05098e-05	0.002908357270338351
1.05100e-05	0.0029534250562669975
1.05102e-05	0.0029984928421953392
1.05105e-05	0.003043560628123986
1.05108e-05	0.0030886284140526324
1.05110e-05	0.003144492457497831
1.05113e-05	0.003203997699110424
1.05115e-05	0.0032635029407230174
1.05118e-05	0.0033230081823356107
1.05120e-05	0.0033825134239478007
1.05123e-05	0.003442018665560394
1.05125e-05	0.0035015239071729876
1.05128e-05	0.0035604258205212957
1.05130e-05	0.003617496274482986
1.05133e-05	0.003674566728444676
1.05135e-05	0.0037316371824059795
1.05138e-05	0.00378870763636767
1.05140e-05	0.00384577809032936
1.05143e-05	0.0039028485442906637
1.05145e-05	0.003959918998252354
1.05148e-05	0.004001439143766792
1.05150e-05	0.004037714716841364
1.05153e-05	0.004073990289916182
1.05155e-05	0.004110265862990999
1.05158e-05	0.004146541436065571
1.05160e-05	0.004182817009140389
1.05163e-05	0.004219092582215206
1.05165e-05	0.004247113685378207
1.05168e-05	0.004250077572905795
1.05170e-05	0.004253041460433385
1.05172e-05	0.004256005347960954
1.05175e-05	0.004258969235488542
1.05178e-05	0.004261933123016132
1.05180e-05	0.004264897010543701
1.05183e-05	0.004267860898071289
1.05185e-05	0.004270824785598879
1.05187e-05	0.0042737886731264475
1.05190e-05	0.0042690399553722965
1.05193e-05	0.004240878902757808
1.05195e-05	0.00421271785014351
1.05198e-05	0.004184556797529021
1.05200e-05	0.004156395744914533
1.05203e-05	0.004128234692300044
1.05205e-05	0.004100073639685746
1.05208e-05	0.0040719125870712575
1.05210e-05	0.004043751534456769
1.05213e-05	0.004015590481842472
1.05215e-05	0.003984253428629392
1.05218e-05	0.003943275328478568
1.05220e-05	0.003902297228328022
1.05223e-05	0.0038613191281771987
1.05225e-05	0.003820341028026375
1.05228e-05	0.003779362927875829
1.05230e-05	0.0037383848277250053
1.05233e-05	0.0036974067275741818
1.05235e-05	0.003659950052053318
1.05238e-05	0.003623681029280609
1.05240e-05	0.003587412006507899
1.05243e-05	0.0035511429837354353
1.05245e-05	0.003514873960962726
1.05248e-05	0.0034786049381900163
1.05250e-05	0.0034423359154175525
1.05253e-05	0.0034090515097944286
1.05255e-05	0.0033848271887469633
1.05257e-05	0.0033606028676996624
1.05260e-05	0.0033363785466521976
1.05263e-05	0.0033121542256047327
1.05265e-05	0.0032879299045574318
1.05268e-05	0.003263705583509967
1.05270e-05	0.0032394812624625016
1.05272e-05	0.0032152569414152007
1.05275e-05	0.003191032620367736
1.05278e-05	0.003166808299320271
1.05280e-05	0.00314258397827297
1.05283e-05	0.0031191996810595855
1.05285e-05	0.003098365354781167
1.05288e-05	0.003077531028502749
1.05290e-05	0.0030566967022244715
1.05293e-05	0.003035862375946053
1.05295e-05	0.003015028049667635
1.05298e-05	0.002994193723389358
1.05300e-05	0.0029733593971109397
1.05303e-05	0.0029525250708325214
1.05305e-05	0.002931690744554244
1.05308e-05	0.0029108564182758257
1.05310e-05	0.0028900220919974074
1.05313e-05	0.0028700651389035156
1.05315e-05	0.002852771534191824
1.05318e-05	0.0028354779294801325
1.05320e-05	0.0028181843247685585
1.05323e-05	0.002800890720056867
1.05325e-05	0.0027835971153451753
1.05328e-05	0.002766303510633601
1.05330e-05	0.0027490099059219093
1.05333e-05	0.0027317163012102177
1.05335e-05	0.0027144226964986432
1.05338e-05	0.0026971290917869517
1.05340e-05	0.0026798354870752605
1.05342e-05	0.002662541882363686
1.05345e-05	0.0026452482776519945
1.05348e-05	0.002627954672940303
1.05350e-05	0.002612368287976785
1.05353e-05	0.002601964328275326
1.05355e-05	0.0025915603685738677
1.05357e-05	0.0025811564088724795
1.05360e-05	0.002570752449171021
1.05363e-05	0.0025603484894695626
1.05365e-05	0.0025499445297681744
1.05368e-05	0.002539540570066716
1.05370e-05	0.002529136610365257
1.05373e-05	0.0025187326506637985
1.05375e-05	0.0025083286909624103
1.05378e-05	0.002497924731260952
1.05380e-05	0.002487520771559493
1.05383e-05	0.002477116811858105
1.05385e-05	0.0024667128521566463
1.05388e-05	0.0024567007435561377
1.05390e-05	0.002447878135631967
1.05393e-05	0.0024390555277077368
1.05395e-05	0.0024302329197835064
1.05398e-05	0.0024214103118593354
1.05400e-05	0.002412587703935105
1.05403e-05	0.0024037650960108746
1.05405e-05	0.002394942488086704
1.05408e-05	0.0023861198801624736
1.05410e-05	0.0023772972722382432
1.05413e-05	0.0023684746643140727
1.05415e-05	0.0023596520563898423
1.05418e-05	0.002350829448465612
1.05420e-05	0.0023420068405414413
1.05423e-05	0.002333184232617211
1.05425e-05	0.0023243616246929806
1.05427e-05	0.002316280355747324
1.05430e-05	0.0023104494906268087
1.05433e-05	0.0023046186255062935
1.05435e-05	0.0022987877603858177
1.05438e-05	0.0022929568952653025
1.05440e-05	0.0022871260301447873
1.05442e-05	0.002281295165024312
1.05445e-05	0.0022754642999037967
1.05448e-05	0.0022696334347832815
1.05450e-05	0.0022638025696628057
1.05453e-05	0.0022579717045422905
1.05455e-05	0.0022521408394217753
1.05458e-05	0.00224630997430126
1.05460e-05	0.0022404791091807843
1.05463e-05	0.002234648244060269
1.05465e-05	0.002228817378939754
1.05468e-05	0.0022245983365640045
1.05470e-05	0.0022252721329246964
1.05473e-05	0.0022259459292853882
1.05475e-05	0.0022266197256460758
1.05478e-05	0.0022272935220067677
1.05480e-05	0.00222796731836746
1.05483e-05	0.002228641114728147
1.05485e-05	0.0022293149110888394
1.05488e-05	0.0022299887074495313
1.05490e-05	0.002230662503810219
1.05493e-05	0.0022313363001709107
1.05495e-05	0.0022320100965316026
1.05498e-05	0.00223268389289229
1.05500e-05	0.002233357689252982
1.05503e-05	0.002234031485613674
1.05505e-05	0.0022356005124978223
1.05508e-05	0.002239887095389966
1.05510e-05	0.0022441736782821096
1.05512e-05	0.002248460261174224
1.05515e-05	0.002252746844066368
1.05518e-05	0.0022570334269585114
1.05520e-05	0.002261320009850626
1.05523e-05	0.0022656065927427697
1.05525e-05	0.002269893175634913
1.05527e-05	0.002274179758527028
1.05530e-05	0.0022784663414191714
1.05533e-05	0.0022827529243113153
1.05535e-05	0.0022870395072034297
1.05538e-05	0.002291326090095573
1.05540e-05	0.002295612672987717
1.05543e-05	0.002300025746225011
1.05545e-05	0.0023048227927389125
1.05548e-05	0.002309619839252846
1.05550e-05	0.00231441688576678
1.05553e-05	0.0023192139322806816
1.05555e-05	0.0023240109787946153
1.05558e-05	0.0023288080253085494
1.05560e-05	0.0023336050718224506
1.05563e-05	0.0023384021183363844
1.05565e-05	0.0023431991648503185
1.05568e-05	0.0023479962113642197
1.05570e-05	0.0023527932578781535
1.05573e-05	0.0023575903043920876
1.05575e-05	0.002362387350905989
1.05578e-05	0.002367184397419923
1.05580e-05	0.0023719814439338567
1.05583e-05	0.002376778490447758
1.05585e-05	0.002381575536961692
1.05588e-05	0.0023863725834756258
1.05590e-05	0.0023922983486355806
1.05593e-05	0.002401650444844981
1.05595e-05	0.0024110025410543816
1.05597e-05	0.002420354637263719
1.05600e-05	0.0024297067334731193
1.05603e-05	0.0024390588296825198
1.05605e-05	0.0024484109258918574
1.05608e-05	0.002457763022101258
1.05610e-05	0.0024671151183106583
1.05612e-05	0.0024764672145199955
1.05615e-05	0.002485819310729396
1.05618e-05	0.0024951714069387965
1.05620e-05	0.002504523503148134
1.05623e-05	0.0025138755993575346
1.05625e-05	0.002523227695566935
1.05628e-05	0.0025325797917763355
1.05630e-05	0.0025419318879856727
1.05633e-05	0.002551283984195073
1.05635e-05	0.002560636080404474
1.05638e-05	0.0025696125754978874
1.05640e-05	0.0025774488982636848
1.05643e-05	0.002585285221029482
1.05645e-05	0.002593121543795226
1.05648e-05	0.0026009578665610236
1.05650e-05	0.002608794189326821
1.05653e-05	0.0026166305120925654
1.05655e-05	0.0026244668348583628
1.05658e-05	0.002633163400896615
1.05660e-05	0.0026444713158707066
1.05663e-05	0.0026557792308448745
1.05665e-05	0.0026670871458190424
1.05668e-05	0.0026783950607931336
1.05670e-05	0.0026897029757673016
1.05673e-05	0.0027010108907414695
1.05675e-05	0.0027123188057155607
1.05678e-05	0.0027263862553669875
1.05680e-05	0.0027488305307078508
1.05682e-05	0.0027712748060485623
1.05685e-05	0.002793719081389426
1.05688e-05	0.00281616335673029
1.05690e-05	0.0028386076320710014
1.05693e-05	0.002861051907411865
1.05695e-05	0.0028834961827527285
1.05697e-05	0.00290594045809344
1.05700e-05	0.0029283847334343038
1.05703e-05	0.0029508290087751675
1.05705e-05	0.0029791735930349526
1.05708e-05	0.0030095081440996937
1.05710e-05	0.0030398426951644348
1.05713e-05	0.003070177246229176
1.05715e-05	0.0031005117972937113
1.05718e-05	0.0031308463483584524
1.05720e-05	0.0031611808994231935
1.05723e-05	0.003191515450487729
1.05725e-05	0.00322185000155247
1.05728e-05	0.003252184552617211
1.05730e-05	0.003280469801092079
1.05733e-05	0.0033025341998259277
1.05735e-05	0.003324598598559776
1.05738e-05	0.003346662997293475
1.05740e-05	0.0033687273960273235
1.05743e-05	0.0033907917947611724
1.05745e-05	0.0034128561934948713
1.05748e-05	0.00343492059222872
1.05750e-05	0.0034569849909625683
1.05753e-05	0.0034790493896962676
1.05755e-05	0.003501113788430116
1.05758e-05	0.0035231781871639645
1.05760e-05	0.003545242585897664
1.05763e-05	0.0035673069846315123
1.05765e-05	0.0035893713833653608
1.05767e-05	0.0036114357820990596
1.05770e-05	0.0036212035052309963
1.05773e-05	0.003626823991904805
1.05775e-05	0.003632444478578576
1.05778e-05	0.003638064965252385
1.05780e-05	0.0036436854519261938
1.05782e-05	0.0036493059385999645
1.05785e-05	0.0036549264252737734
1.05788e-05	0.0036605469119475823
1.05790e-05	0.003666167398621353
1.05793e-05	0.003671787885295162
1.05795e-05	0.003677408371968971
1.05798e-05	0.00368302885864278
1.05800e-05	0.0036886493453165505
1.05803e-05	0.0036942698319903594
1.05805e-05	0.003699890318664168
1.05808e-05	0.0037036246579658723
1.05810e-05	0.0037016334204521507
1.05813e-05	0.003699642182938429
1.05815e-05	0.003697650945424721
1.05818e-05	0.0036956597079109994
1.05820e-05	0.0036936684703972778
1.05823e-05	0.0036916772328835696
1.05825e-05	0.0036896859953698476
1.05828e-05	0.003687694757856126
1.05830e-05	0.003685703520342418
1.05833e-05	0.0036837122828286962
1.05835e-05	0.0036817210453149746
1.05838e-05	0.0036797298078012665
1.05840e-05	0.003677738570287545
1.05843e-05	0.0036757473327738233
1.05845e-05	0.003673756095260115
1.05848e-05	0.003671764857746393
1.05850e-05	0.0036697736202326715
1.05853e-05	0.0036677823827189634
1.05855e-05	0.0036657911452052418
1.05858e-05	0.0036626134768561126
1.05860e-05	0.003655834286703273
1.05863e-05	0.003649055096550387
1.05865e-05	0.0036422759063975013
1.05867e-05	0.003635496716244661
1.05870e-05	0.0036287175260917752
1.05873e-05	0.0036219383359388894
1.05875e-05	0.0036151591457860496
1.05878e-05	0.003608379955633164
1.05880e-05	0.003601600765480278
1.05883e-05	0.0035948215753273923
1.05885e-05	0.0035880423851745525
1.05888e-05	0.0035812631950216667
1.05890e-05	0.003574484004868781
1.05893e-05	0.0035677048147159406
1.05895e-05	0.003560925624563055
1.05898e-05	0.003554146434410169
1.05900e-05	0.0035473672442573293
1.05903e-05	0.0035405880541044435
1.05905e-05	0.0035338088639515577
1.05908e-05	0.0035260256134120784
1.05910e-05	0.0035151944436280095
1.05913e-05	0.00350436327384394
1.05915e-05	0.0034935321040599444
1.05918e-05	0.0034827009342758754
1.05920e-05	0.0034718697644918065
1.05923e-05	0.003461038594707811
1.05925e-05	0.003450207424923742
1.05928e-05	0.0034393762551396725
1.05930e-05	0.003428545085355677
1.05933e-05	0.003417713915571608
1.05935e-05	0.003406882745787539
1.05938e-05	0.0033960515760035432
1.05940e-05	0.0033860698103328783
1.05943e-05	0.0033763745188137135
1.05945e-05	0.003366679227294614
1.05948e-05	0.003356983935775449
1.05950e-05	0.003347288644256284
1.05952e-05	0.0033375933527371848
1.05955e-05	0.0033278980612180195
1.05958e-05	0.0033182027696988547
1.05960e-05	0.0033085074781797554
1.05963e-05	0.00329881218666059
1.05965e-05	0.0032891168951414253
1.05968e-05	0.00327942160362226
1.05970e-05	0.003267640573968304
1.05973e-05	0.003249528091060325
1.05975e-05	0.0032314156081523454
1.05978e-05	0.0032133031252444886
1.05980e-05	0.003195190642336509
1.05983e-05	0.0031770781594285297
1.05985e-05	0.0031589656765206734
1.05988e-05	0.003140853193612694
1.05990e-05	0.0031227407107047144
1.05993e-05	0.0031046282277968577
1.05995e-05	0.0030865157448888786
1.05998e-05	0.003068403261980899
1.06000e-05	0.003043932523706527
1.06003e-05	0.003017317369384452
1.06005e-05	0.0029907022150623772
1.06008e-05	0.0029640870607404828
1.06010e-05	0.0029374719064184083
1.06013e-05	0.0029108567520963334
1.06015e-05	0.002884241597774439
1.06018e-05	0.002857626443452364
1.06020e-05	0.002831011289130289
1.06023e-05	0.0028043961348083947
1.06025e-05	0.00277778098048632
1.06028e-05	0.0027524300456013857
1.06030e-05	0.0027309167671017718
1.06033e-05	0.0027094034886020126
1.06035e-05	0.002687890210102253
1.06037e-05	0.002666376931602639
1.06040e-05	0.00264486365310288
1.06043e-05	0.00262335037460312
1.06045e-05	0.0026018370961035067
1.06048e-05	0.002580323817603747
1.06050e-05	0.0025588105391039875
1.06053e-05	0.0025372972606042283
1.06055e-05	0.0025157839821046144
1.06058e-05	0.0024942707036048548
1.06060e-05	0.0024727574251050956
1.06063e-05	0.0024512441466054817
1.06065e-05	0.0024394454031011876
1.06068e-05	0.002430923030793739
1.06070e-05	0.002422400658486348
1.06073e-05	0.0024138782861788995
1.06075e-05	0.002405355913871451
1.06078e-05	0.00239683354156406
1.06080e-05	0.0023883111692566115
1.06083e-05	0.002379788796949163
1.06085e-05	0.002371266424641772
1.06088e-05	0.0023627440523343235
1.06090e-05	0.002354221680026875
1.06093e-05	0.002345699307719484
1.06095e-05	0.002337176935412036
1.06098e-05	0.002328654563104587
1.06100e-05	0.0023217079680470424
1.06103e-05	0.002319544792267001
1.06105e-05	0.002317381616486959
1.06108e-05	0.002315218440706932
1.06110e-05	0.00231305526492689
1.06113e-05	0.002310892089146848
1.06115e-05	0.002308728913366821
1.06118e-05	0.002306565737586779
1.06120e-05	0.002304402561806737
1.06122e-05	0.00230223938602671
1.06125e-05	0.0023000762102466685
1.06128e-05	0.0022979130344666266
1.06130e-05	0.0022957498586865994
1.06133e-05	0.0022943200437082986
1.06135e-05	0.002295116414059843
1.06138e-05	0.002295912784411388
1.06140e-05	0.002296709154762927
1.06143e-05	0.002297505525114472
1.06145e-05	0.0022983018954660164
1.06148e-05	0.0022990982658175558
1.06150e-05	0.0022998946361691003
1.06153e-05	0.002300691006520645
1.06155e-05	0.002301487376872184
1.06158e-05	0.0023022837472237287
1.06160e-05	0.002303080117575273
1.06163e-05	0.0023038764879268125
1.06165e-05	0.002307972282494224
1.06168e-05	0.0023220837879769085
1.06170e-05	0.0023361952934594973
1.06173e-05	0.002350306798942182
1.06175e-05	0.0023644183044248665
1.06178e-05	0.0023785298099074552
1.06180e-05	0.00239264131539014
1.06183e-05	0.002406752820872824
1.06185e-05	0.002420864326355413
1.06188e-05	0.0024349758318380973
1.06190e-05	0.002449087337320782
1.06193e-05	0.0024667598540706885
1.06195e-05	0.002495242153707399
1.06198e-05	0.00252372445334411
1.06200e-05	0.0025522067529806275
1.06203e-05	0.0025806890526173386
1.06205e-05	0.0026091713522540493
1.06207e-05	0.002637653651890567
1.06210e-05	0.002666135951527278
1.06213e-05	0.0026946182511639887
1.06215e-05	0.0027231005508005063
1.06218e-05	0.002751582850437217
1.06220e-05	0.0027807978358928196
1.06222e-05	0.0028122369577051887
1.06225e-05	0.0028436760795177707
1.06228e-05	0.0028751152013303527
1.06230e-05	0.0029065543231429347
1.06233e-05	0.002937993444955304
1.06235e-05	0.002969432566767886
1.06238e-05	0.003000871688580468
1.06240e-05	0.003032310810392837
1.06243e-05	0.003055947282330147
1.06245e-05	0.003076952194718822
1.06248e-05	0.0030979571071073552
1.06250e-05	0.003118962019496031
1.06253e-05	0.0031399669318847062
1.06255e-05	0.0031609718442732393
1.06258e-05	0.0031819767566619145
1.06260e-05	0.00320298166905059
1.06263e-05	0.0032181208879229315
1.06265e-05	0.0032154542452996395
1.06268e-05	0.003212787602676348
1.06270e-05	0.0032101209600530743
1.06273e-05	0.0032074543174297823
1.06275e-05	0.003204787674806491
1.06278e-05	0.003202121032183217
1.06280e-05	0.003199454389559925
1.06283e-05	0.0031967877469366336
1.06285e-05	0.00319412110431336
1.06288e-05	0.003191454461690068
1.06290e-05	0.00317099675329473
1.06292e-05	0.0031445387437495833
1.06295e-05	0.003118080734204257
1.06298e-05	0.0030916227246589306
1.06300e-05	0.0030651647151137837
1.06303e-05	0.0030387067055684574
1.06305e-05	0.003012248696023131
1.06307e-05	0.0029857906864779837
1.06310e-05	0.0029593326769326573
1.06313e-05	0.0029328746673873314
1.06315e-05	0.0029040882641740147
1.06318e-05	0.002868233804123595
1.06320e-05	0.002832379344072933
1.06323e-05	0.00279652488402227
1.06325e-05	0.002760670423971851
1.06328e-05	0.0027248159639211888
1.06330e-05	0.002688961503870526
1.06333e-05	0.002653107043820107
1.06335e-05	0.002620755367060943
1.06338e-05	0.002589585055987481
1.06340e-05	0.00255841474491423
1.06343e-05	0.0025272444338407677
1.06345e-05	0.0024960741227673055
1.06348e-05	0.0024649038116940545
1.06350e-05	0.0024337335006205923
1.06353e-05	0.0024058417488147478
1.06355e-05	0.0023879023704289105
1.06358e-05	0.0023699629920429523
1.06360e-05	0.0023520236136569937
1.06363e-05	0.002334084235271157
1.06365e-05	0.0023161448568851987
1.06368e-05	0.00229820547849924
1.06370e-05	0.0022802661001134032
1.06373e-05	0.0022623267217274446
1.06375e-05	0.0022443873433414863
1.06377e-05	0.002226447964955649
1.06380e-05	0.002208508586569691
1.06383e-05	0.002197693515492489
1.06385e-05	0.002189281222860474
1.06388e-05	0.002180868930228402
1.06390e-05	0.0021724566375963305
1.06392e-05	0.0021640443449643153
1.06395e-05	0.0021556320523322438
1.06398e-05	0.002147219759700172
1.06400e-05	0.0021388074670681
1.06403e-05	0.002130395174436085
1.06405e-05	0.002121982881804013
1.06408e-05	0.002113570589171941
1.06410e-05	0.0021066886557375656
1.06413e-05	0.0021044522708391403
1.06415e-05	0.002102215885940715
1.06418e-05	0.002099979501042305
1.06420e-05	0.0020977431161438792
1.06423e-05	0.002095506731245454
1.06425e-05	0.002093270346347044
1.06428e-05	0.0020910339614486186
1.06430e-05	0.002088797576550193
1.06433e-05	0.0020865611916517828
1.06435e-05	0.0020843248067533575
1.06438e-05	0.0020820884218549322
1.06440e-05	0.002079852036956522
1.06443e-05	0.0020776156520580964
1.06445e-05	0.002075379267159671
1.06448e-05	0.002073142882261261
1.06450e-05	0.0020709064973628358
1.06453e-05	0.0020686701124644105
1.06455e-05	0.002066433727566
1.06458e-05	0.0020641973426675747
1.06460e-05	0.0020619609577691494
1.06462e-05	0.0020597245728707393
1.06465e-05	0.0020574881879723136
1.06468e-05	0.0020552518030738883
1.06470e-05	0.0020530154181754782
1.06473e-05	0.0020519059386193026
1.06475e-05	0.002054217285671759
1.06477e-05	0.002056528632724199
1.06480e-05	0.0020588399797766554
1.06483e-05	0.0020611513268291117
1.06485e-05	0.002063462673881568
1.06488e-05	0.0020657740209340087
