Time(s)	Current(A)
7.00000e-06	-0.004893436844928354
7.00025e-06	-0.004899564109279006
7.00050e-06	-0.0049056913736296595
7.00075e-06	-0.004910619927914576
7.00100e-06	-0.004915229871178638
7.00125e-06	-0.0049198398144427
7.00150e-06	-0.004924449757706778
7.00175e-06	-0.004928680240825704
7.00200e-06	-0.0049319817793527145
7.00225e-06	-0.004935283317879737
7.00250e-06	-0.004938584856406747
7.00275e-06	-0.004941886394933769
7.00300e-06	-0.004944779586082122
7.00325e-06	-0.004947378828797479
7.00350e-06	-0.004949719833870677
7.00375e-06	-0.004951240107984447
7.00400e-06	-0.004949944678523088
7.00425e-06	-0.004943336167897272
7.00450e-06	-0.004930304075271367
7.00475e-06	-0.004910955442032621
7.00500e-06	-0.004885628049743826
7.00525e-06	-0.004854662934786442
7.00550e-06	-0.0048184003232424315
7.00575e-06	-0.004776846112338026
7.00600e-06	-0.00472911028450058
7.00625e-06	-0.00467398785977415
7.00650e-06	-0.004611142217361964
7.00675e-06	-0.00454099997045597
7.00700e-06	-0.004464131777747334
7.00725e-06	-0.004381110574938942
7.00750e-06	-0.00429047318844944
7.00775e-06	-0.004198148154829127
7.00800e-06	-0.0040971240344616034
7.00825e-06	-0.003993787741211281
7.00850e-06	-0.003883696793708522
7.00875e-06	-0.0037679495874906144
7.00900e-06	-0.003647882721766559
7.00925e-06	-0.0035242139272508247
7.00950e-06	-0.003397660604047726
7.00975e-06	-0.0032688095057848785
7.01000e-06	-0.003137895193028034
7.01025e-06	-0.0030050292140884932
7.01050e-06	-0.002870663256492375
7.01075e-06	-0.002735548892798358
7.01100e-06	-0.002600494303819323
7.01125e-06	-0.002466307742499248
7.01150e-06	-0.002333797731883691
7.01175e-06	-0.0022036903036205657
7.01200e-06	-0.002076491249974853
7.01225e-06	-0.001952629195325305
7.01250e-06	-0.0018327457943295327
7.01275e-06	-0.001717670362320545
7.01300e-06	-0.0016082676882133323
7.01325e-06	-0.0015054026703237267
7.01350e-06	-0.0014099400661071319
7.01375e-06	-0.001322549631898434
7.01400e-06	-0.001243290673653895
7.01425e-06	-0.0011717837595054223
7.01450e-06	-0.0011078919967343534
7.01475e-06	-0.0010518108637574913
7.01500e-06	-0.0010038042636906388
7.01525e-06	-0.0009641368085606504
7.01550e-06	-0.0009330728344833644
7.01575e-06	-0.0009107545598766009
7.01600e-06	-0.0008969417260726564
7.01625e-06	-0.0008911194409827784
7.01650e-06	-0.0008929246265062283
7.01675e-06	-0.0009022024466960089
7.01700e-06	-0.0009188409816454897
7.01725e-06	-0.0009427286717137925
7.01750e-06	-0.0009737537948597873
7.01775e-06	-0.0010117281651963444
7.01800e-06	-0.0010562239801060387
7.01825e-06	-0.0011087423000338162
7.01850e-06	-0.001163034680843784
7.01875e-06	-0.0012251800691876133
7.01900e-06	-0.0012894127468745728
7.01925e-06	-0.0013604013204110308
7.01950e-06	-0.0014331855766010924
7.01975e-06	-0.0015114644962583189
7.02000e-06	-0.0015912038694356088
7.02025e-06	-0.0016745659000618508
7.02050e-06	-0.0017588908145585286
7.02075e-06	-0.0018451130728438033
7.02100e-06	-0.001931839635429485
7.02125e-06	-0.00201890129118535
7.02150e-06	-0.0021060520129961083
7.02175e-06	-0.0021918732146026876
7.02200e-06	-0.0022773410365214053
7.02225e-06	-0.002360533057564588
7.02250e-06	-0.0024409180495435653
7.02275e-06	-0.0025180516957195457
7.02300e-06	-0.002591347716910007
7.02325e-06	-0.0026602198944448816
7.02350e-06	-0.002721810114604002
7.02375e-06	-0.002781718603369361
7.02400e-06	-0.0028316235930279225
7.02425e-06	-0.0028788697036534875
7.02450e-06	-0.0029150998160071342
7.02475e-06	-0.0029484019322150255
7.02500e-06	-0.0029675278645021966
7.02525e-06	-0.002982885839418893
7.02550e-06	-0.0029982438143356417
7.02575e-06	-0.0029990368475907177
7.02600e-06	-0.00299595859365097
7.02625e-06	-0.0029811096345495683
7.02650e-06	-0.002963132082061122
7.02675e-06	-0.002936679482061694
7.02700e-06	-0.002902579473761196
7.02725e-06	-0.0028618418894439212
7.02750e-06	-0.002814708456208269
7.02775e-06	-0.0027614112873686108
7.02800e-06	-0.002702177562716551
7.02825e-06	-0.0026372912158293097
7.02850e-06	-0.0025671325517393744
7.02875e-06	-0.002492134705981804
7.02900e-06	-0.0024127394933372145
7.02925e-06	-0.0023293884584872715
7.02950e-06	-0.0022425234162126067
7.02975e-06	-0.0021525798411654432
7.03000e-06	-0.0020599900253134287
7.03025e-06	-0.0019652221057315997
7.03050e-06	-0.0018688040665915734
7.03075e-06	-0.001771297196658782
7.03100e-06	-0.001673268181274365
7.03125e-06	-0.0015752836382545137
7.03150e-06	-0.001477910160971226
7.03175e-06	-0.001381710296109766
7.03200e-06	-0.0012872446870358133
7.03225e-06	-0.001195096105850962
7.03250e-06	-0.0011058850865021653
7.03275e-06	-0.0010202530369414632
7.03300e-06	-0.0009388443893104319
7.03325e-06	-0.0008623036863553884
7.03350e-06	-0.0007912753357735583
7.03375e-06	-0.0007262038452777402
7.03400e-06	-0.0006669317714268822
7.03425e-06	-0.0006129227417900795
7.03450e-06	-0.0005639617713238681
7.03475e-06	-0.000520206108741101
7.03500e-06	-0.00048188761849935136
7.03525e-06	-0.00044923882943386943
7.03550e-06	-0.00042249218306848984
7.03575e-06	-0.00040175488526096673
7.03600e-06	-0.00038675702940825225
7.03625e-06	-0.0003769914559322971
7.03650e-06	-0.0003721523232067395
7.03675e-06	-0.0003721669207874271
7.03700e-06	-0.0003770093352453162
7.03725e-06	-0.00038665401486991173
7.03750e-06	-0.00040107540038682713
7.03775e-06	-0.00042016944212658087
7.03800e-06	-0.00044359587838867915
7.03825e-06	-0.0004708658597248707
7.03850e-06	-0.0005016167196334437
7.03875e-06	-0.0005356318255064984
7.03900e-06	-0.0005738497780043136
7.03925e-06	-0.000613004849139924
7.03950e-06	-0.0006563436874901633
7.03975e-06	-0.0007007945498234924
7.04000e-06	-0.0007483675911492306
7.04025e-06	-0.0007967704917239594
7.04050e-06	-0.0008469898253657879
7.04075e-06	-0.0008976919576504292
7.04100e-06	-0.000949265483927775
7.04125e-06	-0.0010010706222828962
7.04150e-06	-0.0010528213832984477
7.04175e-06	-0.001104557691094714
7.04200e-06	-0.0011550347438660483
7.04225e-06	-0.0012051770930756847
7.04250e-06	-0.001252702478211427
7.04275e-06	-0.0012995322876461388
7.04300e-06	-0.001342613670478147
7.04325e-06	-0.0013846987406413013
7.04350e-06	-0.0014206601023017253
7.04375e-06	-0.0014549938134813195
7.04400e-06	-0.00148932752466103
7.04425e-06	-0.0015161263683146073
7.04450e-06	-0.001540922482617779
7.04475e-06	-0.0015657185969210345
7.04500e-06	-0.001582688206414811
7.04525e-06	-0.0015975775708560974
7.04550e-06	-0.0016124669352973334
7.04575e-06	-0.001619145666351369
7.04600e-06	-0.0016236420529365206
7.04625e-06	-0.0016281384395216568
7.04650e-06	-0.001626422780293897
7.04675e-06	-0.0016230559909789896
7.04700e-06	-0.001614977847796497
7.04725e-06	-0.0016056474507903727
7.04750e-06	-0.0015928738300589787
7.04775e-06	-0.0015769686298552485
7.04800e-06	-0.0015584134583012388
7.04825e-06	-0.0015374512507413932
7.04850e-06	-0.001514286881899991
7.04875e-06	-0.001489072583735712
7.04900e-06	-0.0014619499661701872
7.04925e-06	-0.0014330604062946781
7.04950e-06	-0.0014025453242798216
7.04975e-06	-0.0013705654784692159
7.05000e-06	-0.001337342218684969
7.05025e-06	-0.0013031403298803005
7.05050e-06	-0.001268200862094065
7.05075e-06	-0.0012327320654998064
7.05100e-06	-0.0011969351360293474
7.05125e-06	-0.001161011398854117
7.05150e-06	-0.0011251620685404945
7.05175e-06	-0.001089600358851553
7.05200e-06	-0.0010545776345203465
7.05225e-06	-0.0010203724836277434
7.05250e-06	-0.0009872483955188022
7.05275e-06	-0.0009554483123359237
7.05300e-06	-0.0009252108424089901
7.05325e-06	-0.0008967746586875256
7.05350e-06	-0.0008703782868488724
7.05375e-06	-0.000846554416126624
7.05400e-06	-0.0008266043097057609
7.05425e-06	-0.0008120418371470339
7.05450e-06	-0.0008035485497436764
7.05475e-06	-0.0008011049315829249
7.05500e-06	-0.0008045599214607621
7.05525e-06	-0.0008137612481362735
7.05550e-06	-0.0008285565943833929
7.05575e-06	-0.0008489779388947624
7.05600e-06	-0.000875538508139489
7.05625e-06	-0.0009088847690273307
7.05650e-06	-0.0009491417662130077
7.05675e-06	-0.0009959953859389648
7.05700e-06	-0.0010490491187200972
7.05725e-06	-0.0011079056512857464
7.05750e-06	-0.001174170859552088
7.05775e-06	-0.001242086044906738
7.05800e-06	-0.0013181641771365955
7.05825e-06	-0.0013964119790032428
7.05850e-06	-0.0014823993892348235
7.05875e-06	-0.001570443947886867
7.05900e-06	-0.0016645852524652272
7.05925e-06	-0.001760347041008541
7.05950e-06	-0.0018605018747989632
7.05975e-06	-0.001961824357604662
7.06000e-06	-0.0020663960071607905
7.06025e-06	-0.00217183126866401
7.06050e-06	-0.002279297414585494
7.06075e-06	-0.0023873033592249383
7.06100e-06	-0.0024953580480338395
7.06125e-06	-0.002603425692793852
7.06150e-06	-0.0027095219578095776
7.06175e-06	-0.0028150942401465877
7.06200e-06	-0.0029170265286637986
7.06225e-06	-0.003017991325393184
7.06250e-06	-0.0031136004255215566
7.06275e-06	-0.0032077860088149945
7.06300e-06	-0.003294422223957975
7.06325e-06	-0.003379051855559249
7.06350e-06	-0.003453917386300496
7.06375e-06	-0.003526187668844936
7.06400e-06	-0.0035869734572705012
7.06425e-06	-0.003644706725747524
7.06450e-06	-0.003687167587660224
7.06475e-06	-0.003725569121820202
7.06500e-06	-0.0037639706559801805
7.06525e-06	-0.00378320769962886
7.06550e-06	-0.0037973509194673995
7.06575e-06	-0.0038114941393059395
7.06600e-06	-0.0038092894538754047
7.06625e-06	-0.003802739578623456
7.06650e-06	-0.0037867058354985306
7.06675e-06	-0.0037620660330293753
7.06700e-06	-0.003729900628847363
7.06725e-06	-0.0036904342067426523
7.06750e-06	-0.0036438912643463623
7.06775e-06	-0.0035905089422768512
7.06800e-06	-0.0035305862475917184
7.06825e-06	-0.003464515173340701
7.06850e-06	-0.0033927382776866672
7.06875e-06	-0.0033157049842832587
7.06900e-06	-0.003233864239502336
7.06925e-06	-0.0031476645729440946
7.06950e-06	-0.003057554784308426
7.06975e-06	-0.0029639914965678502
7.07000e-06	-0.002867470542022738
7.07025e-06	-0.0027685452693582977
7.07050e-06	-0.002667801187537558
7.07075e-06	-0.0025658273324407925
7.07100e-06	-0.002463213219636114
7.07125e-06	-0.0023605476894432904
7.07150e-06	-0.0022584197056093086
7.07175e-06	-0.0021574234799906084
7.07200e-06	-0.002058177034085118
7.07225e-06	-0.001961334888100786
7.07250e-06	-0.0018675714502268009
7.07275e-06	-0.001777563521874818
7.07300e-06	-0.0016919878008651392
7.07325e-06	-0.0016115209174940054
7.07350e-06	-0.001536839201701181
7.07375e-06	-0.0014686143115844143
7.07400e-06	-0.0014074379565509887
7.07425e-06	-0.0013537006594680518
7.07450e-06	-0.0013076006375229115
7.07475e-06	-0.0012692595613486611
7.07500e-06	-0.001238789048793565
7.07525e-06	-0.001216300466240793
7.07550e-06	-0.0012019050147680501
7.07575e-06	-0.0011957109279633964
7.07600e-06	-0.0011977764531491892
7.07625e-06	-0.0012080337281800302
7.07650e-06	-0.0012262942571919175
7.07675e-06	-0.0012523220134238412
7.07700e-06	-0.0012858741847703384
7.07725e-06	-0.0013267080883652906
7.07750e-06	-0.001377244477683133
7.07775e-06	-0.0014299561712531508
7.07800e-06	-0.0014928374160039918
7.07825e-06	-0.001558421675577362
7.07850e-06	-0.0016329088736959155
7.07875e-06	-0.001709762427460698
7.07900e-06	-0.0017940590778910653
7.07925e-06	-0.0018803340654433803
7.07950e-06	-0.0019725841224408794
7.07975e-06	-0.002066422322413986
7.08000e-06	-0.002164703231505141
7.08025e-06	-0.0022641649900144193
7.08050e-06	-0.0023662896516784774
7.08075e-06	-0.002469122099416281
7.08100e-06	-0.0025727166116539988
7.08125e-06	-0.0026765136767481126
7.08150e-06	-0.002779167185241527
7.08175e-06	-0.002881516742224044
7.08200e-06	-0.0029807772064676134
7.08225e-06	-0.003079216605620941
7.08250e-06	-0.003172466314257259
7.08275e-06	-0.003264336629630203
7.08300e-06	-0.0033488415171125216
7.08325e-06	-0.0034313887114369554
7.08350e-06	-0.0035019945960038648
7.08375e-06	-0.0035694265413578397
7.08400e-06	-0.003636858486711586
7.08425e-06	-0.003690339299048872
7.08450e-06	-0.003740111971404047
7.08475e-06	-0.003789884643759222
7.08500e-06	-0.00382530660353805
7.08525e-06	-0.003856914217126423
7.08550e-06	-0.003888521830714796
7.08575e-06	-0.003907338667764695
7.08600e-06	-0.0039227557816648795
7.08625e-06	-0.003929023155174601
7.08650e-06	-0.003932858574367524
7.08675e-06	-0.003928136540809547
7.08700e-06	-0.003921139979967748
7.08725e-06	-0.003907817529618434
7.08750e-06	-0.003888645051981333
7.08775e-06	-0.0038643092406677264
7.08800e-06	-0.0038351668900564752
7.08825e-06	-0.003801726972366228
7.08850e-06	-0.0037643821999231762
7.08875e-06	-0.003723384265032596
7.08900e-06	-0.003678957199663948
7.08925e-06	-0.0036313246190157436
7.08950e-06	-0.003580709856565946
7.08975e-06	-0.003527385125011027
7.09000e-06	-0.0034717680788770152
7.09025e-06	-0.0034143722740522407
7.09050e-06	-0.0033556378213438452
7.09075e-06	-0.003295917378612259
7.09100e-06	-0.003235545400064209
7.09125e-06	-0.0031748565494939206
7.09150e-06	-0.003114185269486242
7.09175e-06	-0.003053896071048636
7.09200e-06	-0.002994445359969648
7.09225e-06	-0.0029363488080448455
7.09250e-06	-0.0028800769158993885
7.09275e-06	-0.0028260441793744985
7.09300e-06	-0.0027746548297370426
7.09325e-06	-0.002726312374113554
7.09350e-06	-0.0026814206269994752
7.09375e-06	-0.0026402976494600836
7.09400e-06	-0.002602991455040911
7.09425e-06	-0.0025693506240433575
7.09450e-06	-0.00254229892983734
7.09475e-06	-0.002516796213335786
7.09500e-06	-0.0024912934968341458
7.09525e-06	-0.0024751766387049613
7.09550e-06	-0.002461554493846919
7.09575e-06	-0.0024479323489888303
7.09600e-06	-0.002443645233677807
7.09625e-06	-0.0024418393215954134
7.09650e-06	-0.002440033409513013
7.09675e-06	-0.002446649386209839
7.09700e-06	-0.002455503857977811
7.09725e-06	-0.002464358329745753
7.09750e-06	-0.002481123949502235
7.09775e-06	-0.002499992312033365
7.09800e-06	-0.0025188606745644307
7.09825e-06	-0.0025433748994593544
7.09850e-06	-0.0025693897657668202
7.09875e-06	-0.0025991422981729174
7.09900e-06	-0.002629888283159342
7.09925e-06	-0.0026638377717273453
7.09950e-06	-0.0026986387352036455
7.09975e-06	-0.0027360366592515495
7.10000e-06	-0.0027741248421704057
7.10025e-06	-0.0028139301074233776
7.10050e-06	-0.002854191764400614
7.10075e-06	-0.0028953464513440056
7.10100e-06	-0.0029367385010961814
7.10125e-06	-0.002978269517715507
7.10150e-06	-0.0030198374710189635
7.10175e-06	-0.003060745446666788
7.10200e-06	-0.0031014780036209525
7.10225e-06	-0.0031405802060736642
7.10250e-06	-0.0031792490686176644
7.10275e-06	-0.0032161052918620527
7.10300e-06	-0.003250973989853515
7.10325e-06	-0.003283714168480497
7.10350e-06	-0.003314043918724018
7.10375e-06	-0.003341460738301739
7.10400e-06	-0.0033648956463025793
7.10425e-06	-0.0033831501936760866
7.10450e-06	-0.0033956811217698744
7.10475e-06	-0.0034002688572097152
7.10500e-06	-0.0034030691113609494
7.10525e-06	-0.0033971599781049367
7.10550e-06	-0.003388935934109767
7.10575e-06	-0.0033718763196884604
7.10600e-06	-0.0033524682557254048
7.10625e-06	-0.0033230792253322507
7.10650e-06	-0.003291037304983249
7.10675e-06	-0.0032516706995100292
7.10700e-06	-0.0032058265975368418
7.10725e-06	-0.003154513253716513
7.10750e-06	-0.0030980665076178163
7.10775e-06	-0.003036735281225605
7.10800e-06	-0.002970546580842734
7.10825e-06	-0.00289947658561043
7.10850e-06	-0.0028237586091278493
7.10875e-06	-0.0027438376404824317
7.10900e-06	-0.00266019790690108
7.10925e-06	-0.0025733242968334624
7.10950e-06	-0.002483701612570634
7.10975e-06	-0.0023917597933143715
7.11000e-06	-0.0022977902331978105
7.11025e-06	-0.0022020524778766652
7.11050e-06	-0.0021049667622563216
7.11075e-06	-0.0020070860843848003
7.11100e-06	-0.0019089880423876634
7.11125e-06	-0.0018112504055068069
7.11150e-06	-0.0017144510349552534
7.11175e-06	-0.0016191335115315845
7.11200e-06	-0.0015257543073074226
7.11225e-06	-0.0014347499005940476
7.11250e-06	-0.001346657764526217
7.11275e-06	-0.001262098082007819
7.11300e-06	-0.001181706634381045
7.11325e-06	-0.0011061192146084781
7.11350e-06	-0.0010359716587325122
7.11375e-06	-0.0009716386780562115
7.11400e-06	-0.0009127304155300648
7.11425e-06	-0.0008584221783414104
7.11450e-06	-0.000808370581298055
7.11475e-06	-0.0007627440138422134
7.11500e-06	-0.0007218121486618813
7.11525e-06	-0.0006858454796624745
7.11550e-06	-0.0006551143476663663
7.11575e-06	-0.0006297258680546791
7.11600e-06	-0.000609307885783005
7.11625e-06	-0.000593216084585594
7.11650e-06	-0.0005811075602102483
7.11675e-06	-0.0005729601679539744
7.11700e-06	-0.0005688149978173806
7.11725e-06	-0.0005687138184558477
7.11750e-06	-0.0005726981930445607
7.11775e-06	-0.00058070739884585
7.11800e-06	-0.0005923806669148149
7.11825e-06	-0.000607186659264686
7.11850e-06	-0.0006258205895178784
7.11875e-06	-0.000645303654052021
7.11900e-06	-0.0006687770726186692
7.11925e-06	-0.0006933111069285779
7.11950e-06	-0.0007214825828880744
7.11975e-06	-0.0007506208722801676
7.12000e-06	-0.000782478695435371
7.12025e-06	-0.0008150593567899575
7.12050e-06	-0.0008491980841236607
7.12075e-06	-0.0008837509374453173
7.12100e-06	-0.0009192110761033117
7.12125e-06	-0.000954912366574912
7.12150e-06	-0.0009908969250480063
7.12175e-06	-0.0010269567747107126
7.12200e-06	-0.0010623220889413314
7.12225e-06	-0.001097502799197431
7.12250e-06	-0.0011302325974487462
7.12275e-06	-0.00116231095579348
7.12300e-06	-0.0011943893141382136
7.12325e-06	-0.0012237026824828408
7.12350e-06	-0.0012505732452707218
7.12375e-06	-0.001275530478824606
7.12400e-06	-0.0012999896358647275
7.12425e-06	-0.0013258631627022586
7.12450e-06	-0.0013548021167568338
7.12475e-06	-0.0013844538559258464
7.12500e-06	-0.0014172952878288134
7.12525e-06	-0.0014509845237867737
7.12550e-06	-0.0014846737597448481
7.12575e-06	-0.0015209472337401194
7.12600e-06	-0.0015579075850209875
7.12625e-06	-0.0016005131242191842
7.12650e-06	-0.001644619125564004
7.12675e-06	-0.0016887251269089732
7.12700e-06	-0.0017386874489337036
7.12725e-06	-0.0017902063511162827
7.12750e-06	-0.001841725253299036
7.12775e-06	-0.0018976443130869587
7.12800e-06	-0.001954732912316811
7.12825e-06	-0.0020118215115468565
7.12850e-06	-0.0020739592709355828
7.12875e-06	-0.002137439071333734
7.12900e-06	-0.0022009188717321
7.12925e-06	-0.0022672100150762826
7.12950e-06	-0.0023342483990320393
7.12975e-06	-0.0024012867829880232
7.13000e-06	-0.002469689819738644
7.13025e-06	-0.0025384555742396686
7.13050e-06	-0.0026072213287409267
7.13075e-06	-0.002676298371476644
7.13100e-06	-0.0027454581530371803
7.13125e-06	-0.0028133360549199666
7.13150e-06	-0.0028808732397246446
7.13175e-06	-0.002945998599829931
7.13200e-06	-0.0030104829092350194
7.13225e-06	-0.0030720466151791127
7.13250e-06	-0.003132834039624471
7.13275e-06	-0.003189610278802323
7.13300e-06	-0.0032453203654013154
7.13325e-06	-0.0032956299659433383
7.13350e-06	-0.003344504144844653
7.13375e-06	-0.003388854864852316
7.13400e-06	-0.0034300542415615703
7.13425e-06	-0.0034699179613147226
7.13450e-06	-0.0035095643633161035
7.13475e-06	-0.003547565113117626
7.13500e-06	-0.0035851284569604503
7.13525e-06	-0.003622691800803402
7.13550e-06	-0.0036572329448477836
7.13575e-06	-0.0036909708036051603
7.13600e-06	-0.0037233114521415724
7.13625e-06	-0.0037552807293297543
7.13650e-06	-0.003787409544037475
7.13675e-06	-0.0038195807630040284
7.13700e-06	-0.0038517519819704724
7.13725e-06	-0.0038826747633505724
7.13750e-06	-0.003913265716389933
7.13775e-06	-0.00394385666942919
7.13800e-06	-0.003974233298312133
7.13825e-06	-0.004004085246888563
7.13850e-06	-0.004033937195464891
7.13875e-06	-0.00406378914404122
7.13900e-06	-0.004093024478148411
7.13925e-06	-0.004122095919275595
7.13950e-06	-0.004151167360402877
7.13975e-06	-0.00418023880153006
7.14000e-06	-0.0042088222324204545
7.14025e-06	-0.0042362109806159945
7.14050e-06	-0.004263599728811441
7.14075e-06	-0.004290988477006887
7.14100e-06	-0.004318377225202427
7.14125e-06	-0.004342504704398558
7.14150e-06	-0.004365765354933978
7.14175e-06	-0.004389026005469475
7.14200e-06	-0.004412286656004895
7.14225e-06	-0.004435547306540314
7.14250e-06	-0.004458807957075812
7.14275e-06	-0.004482068607611232
7.14300e-06	-0.004502745609927872
7.14325e-06	-0.004517097663331779
7.14350e-06	-0.004531449716735636
7.14375e-06	-0.004545801770139542
7.14400e-06	-0.0045601538235434
