Time(s)	Current(A)
1.40000e-05	0.0003148280727602923
1.40003e-05	0.0003770032537378942
1.40005e-05	0.00043922411667146177
1.40008e-05	0.0005014449796050293
1.40010e-05	0.0005628346078578486
1.40013e-05	0.0006232819997787046
1.40015e-05	0.0006837293916995607
1.40018e-05	0.0007441767836200071
1.40020e-05	0.0008009005374275649
1.40023e-05	0.0008575039952062572
1.40025e-05	0.0009100716214199709
1.40028e-05	0.0009625088658687817
1.40030e-05	0.0010093791437446734
1.40033e-05	0.0010560695749350117
1.40035e-05	0.0010960269196423871
1.40038e-05	0.0011357667449395342
1.40040e-05	0.0011708199308770022
1.40043e-05	0.0012057217100220046
1.40045e-05	0.0012362421426803543
1.40048e-05	0.0012666210313517453
1.40050e-05	0.0012969999200233423
1.40053e-05	0.0013206218803100678
1.40055e-05	0.0013440255509488675
1.40058e-05	0.0013674292215875086
1.40060e-05	0.001385549556885231
1.40063e-05	0.0014034992085015462
1.40065e-05	0.0014214488601177397
1.40068e-05	0.0014315141918107412
1.40070e-05	0.0014413248122913495
1.40073e-05	0.0014511354327718913
1.40075e-05	0.0014609460532524997
1.40078e-05	0.001470756673733108
1.40080e-05	0.00148056729421365
1.40083e-05	0.0014903779146942585
1.40085e-05	0.0015001885351748666
1.40088e-05	0.0015060468606798447
1.40090e-05	0.001507425108522915
1.40093e-05	0.001508803356365985
1.40095e-05	0.001510181604209046
1.40098e-05	0.0015115598520521164
1.40100e-05	0.0015129380998951867
1.40103e-05	0.0015143163477382476
1.40105e-05	0.001515694595581318
1.40108e-05	0.0015170728434243882
1.40110e-05	0.0015152670245073341
1.40113e-05	0.0015133583409788296
1.40115e-05	0.001511449657450325
1.40118e-05	0.0015095409739218336
1.40120e-05	0.001507632290393329
1.40123e-05	0.0015057236068648245
1.40125e-05	0.001503814923336333
1.40128e-05	0.0015013811261870142
1.40130e-05	0.0014983520926453349
1.40133e-05	0.001495323059103676
1.40135e-05	0.0014922940255619967
1.40138e-05	0.0014892649920203171
1.40140e-05	0.0014862359584786379
1.40143e-05	0.001483206924936979
1.40145e-05	0.0014801778913952996
1.40148e-05	0.0014686737976426487
1.40150e-05	0.001456895908193579
1.40153e-05	0.0014451180187444296
1.40155e-05	0.0014333401292952804
1.40158e-05	0.0014215622398462107
1.40160e-05	0.0014097843503970615
1.40163e-05	0.001398006460947912
1.40165e-05	0.0013862285714988426
1.40168e-05	0.0013744506820496931
1.40170e-05	0.0013626727926005437
1.40173e-05	0.0013398893723210682
1.40175e-05	0.0013167504068410385
1.40178e-05	0.001293611441361009
1.40180e-05	0.0012704724758811363
1.40183e-05	0.0012473335104011066
1.40185e-05	0.001224194544921077
1.40188e-05	0.0012010555794412041
1.40190e-05	0.0011779166139611746
1.40193e-05	0.0011547776484811451
1.40195e-05	0.0011316386830012722
1.40198e-05	0.001104023834182854
1.40200e-05	0.0010762643872651316
1.40203e-05	0.0010485049403475971
1.40205e-05	0.0010207454934298744
1.40208e-05	0.0009929860465121517
1.40210e-05	0.0009652265995946172
1.40213e-05	0.000939050858279403
1.40215e-05	0.0009129262802324801
1.40218e-05	0.0008868017021857342
1.40220e-05	0.0008606771241388114
1.40223e-05	0.0008345525460918885
1.40225e-05	0.0008084279680449656
1.40228e-05	0.0007865163959304856
1.40230e-05	0.0007647409293853111
1.40233e-05	0.0007429654628401365
1.40235e-05	0.0007250011670385194
1.40238e-05	0.0007071599950995934
1.40240e-05	0.0006929022694414929
1.40243e-05	0.0006787603107690354
1.40245e-05	0.0006683504320063767
1.40248e-05	0.000658061121994364
1.40250e-05	0.0006516403179414307
1.40253e-05	0.0006453444900255173
1.40255e-05	0.000643043867524128
1.40258e-05	0.0006408723143184366
1.40260e-05	0.0006426658845693176
1.40263e-05	0.0006445875522867213
1.40265e-05	0.0006502724813999409
1.40268e-05	0.0006560789866143834
1.40270e-05	0.0006654393354331245
1.40273e-05	0.0006749144948918764
1.40275e-05	0.0006885011935850408
1.40278e-05	0.0007022207198597915
1.40280e-05	0.0007159402461344492
1.40283e-05	0.000733881151669875
1.40285e-05	0.0007519584332840197
1.40288e-05	0.0007700357148980418
1.40290e-05	0.0007925093792782034
1.40293e-05	0.0008151250734086639
1.40295e-05	0.0008377407675389711
1.40298e-05	0.0008603564616694315
1.40300e-05	0.0008829721557998919
1.40303e-05	0.000905587849930199
1.40305e-05	0.0009302632513036353
1.40308e-05	0.0009550051936770502
1.40310e-05	0.000979747136050465
1.40313e-05	0.0010044890784237123
1.40315e-05	0.001029231020797127
1.40318e-05	0.0010539729631705418
1.40320e-05	0.001075881800397668
1.40323e-05	0.001097699111195565
1.40325e-05	0.0011195164219934624
1.40328e-05	0.0011413337327912118
1.40330e-05	0.001163151043589109
1.40333e-05	0.0011808699300066242
1.40335e-05	0.0011939430954842284
1.40338e-05	0.0012070162609619213
1.40340e-05	0.0012200894264396142
1.40343e-05	0.0012331625919172187
1.40345e-05	0.0012462357573949116
1.40348e-05	0.0012488771310426865
1.40350e-05	0.0012511814947280256
1.40353e-05	0.0012534858584133805
1.40355e-05	0.0012480566873208038
1.40358e-05	0.0012423776762863477
1.40360e-05	0.0012366986652518532
1.40363e-05	0.0012227612780814838
1.40365e-05	0.0012085570954195103
1.40368e-05	0.0011943529127574405
1.40370e-05	0.001172678630945348
1.40373e-05	0.0011507630197553958
1.40375e-05	0.0011288474085652954
1.40378e-05	0.0011003301561748312
1.40380e-05	0.0010715996308502838
1.40383e-05	0.001042869105525542
1.40385e-05	0.001008463606149536
1.40388e-05	0.0009738747707923924
1.40390e-05	0.0009392859354350144
1.40393e-05	0.0009000041956026207
1.40395e-05	0.0008605708465752188
1.40398e-05	0.0008211374975480841
1.40400e-05	0.0007817041485206823
1.40403e-05	0.0007411288445781488
1.40405e-05	0.0006992590910206578
1.40408e-05	0.000657389337462883
1.40410e-05	0.0006155195839051083
1.40413e-05	0.0005736498303476172
1.40415e-05	0.0005331296048593688
1.40418e-05	0.0004926529772891023
1.40420e-05	0.00045217634971911
1.40423e-05	0.00041434590070275564
1.40425e-05	0.0003766009392566045
1.40428e-05	0.00034118999379144474
1.40430e-05	0.00030776464138958313
1.40433e-05	0.0002765767682142696
1.40435e-05	0.00024785150467770446
1.40438e-05	0.00022129447028275263
1.40440e-05	0.000194804985984244
1.40443e-05	0.00016809852111539675
1.40445e-05	0.00014095528608146026
1.40448e-05	0.0001136328009986753
1.40450e-05	8.630497358808804e-05
1.40453e-05	5.929099798256279e-05
1.40455e-05	3.2785089279570884e-05
1.40458e-05	6.534988418713263e-06
1.40460e-05	-2.0276287370226933e-05
1.40463e-05	-4.8165313240173224e-05
1.40465e-05	-7.706527706541335e-05
1.40468e-05	-0.00010675004533196254
1.40470e-05	-0.00013698899377057787
1.40473e-05	-0.00016308591157113099
1.40475e-05	-0.0001846920668362622
1.40478e-05	-0.002953402745833895
1.40480e-05	-0.008492312872277323
1.40483e-05	-0.010397978163168153
1.40485e-05	-0.009325732511478278
1.40488e-05	-0.006687845320144129
1.40490e-05	-0.0029199974686828943
1.40493e-05	-0.0008161756834405145
1.40495e-05	-0.0008882315287580672
1.40498e-05	-0.0026785800659639455
1.40500e-05	-0.0053809761155327205
1.40503e-05	-0.006832667758538077
1.40505e-05	-0.006384170794301729
1.40508e-05	-0.004657456719332101
1.40510e-05	-0.0024961399722977663
1.40513e-05	-0.0011209211937256536
1.40515e-05	-0.001066896671644097
1.40518e-05	-0.0021965042542040373
1.40520e-05	-0.003985288804759447
1.40523e-05	-0.005191464056145159
1.40525e-05	-0.0047719493850055935
1.40528e-05	-0.003517712426322718
1.40530e-05	-0.0020745930904668697
1.40533e-05	-0.0008431063342813365
1.40535e-05	-0.00045716250734174706
1.40538e-05	-0.0010572829943189047
1.40540e-05	-0.002039556825274883
1.40543e-05	-0.002962530818642464
1.40545e-05	-0.0031367783081665316
1.40548e-05	-0.002456085497941785
1.40550e-05	-0.0015570733005232612
1.40553e-05	-0.0007840843458383251
1.40555e-05	-0.0005407885867146438
1.40558e-05	-0.0009151504714661307
1.40560e-05	-0.001528838236028015
1.40563e-05	-0.002105315138262458
1.40565e-05	-0.0022127472602479913
1.40568e-05	-0.0017846493288007804
1.40570e-05	-0.001219832611723292
1.40573e-05	-0.0007339982515177444
1.40575e-05	-0.0005799898878170648
1.40578e-05	-0.0008128802924001759
1.40580e-05	-0.0011956639150865508
1.40583e-05	-0.001555118992137706
1.40585e-05	-0.0016207670246264952
1.40588e-05	-0.0013509977185579849
1.40590e-05	-0.0009956531855754018
1.40593e-05	-0.000689858515898307
1.40595e-05	-0.0005919918034491574
1.40598e-05	-0.0007365392139241371
1.40600e-05	-0.0009750350711222443
1.40603e-05	-0.001198979763364419
1.40605e-05	-0.0012389651346183918
1.40608e-05	-0.0010689550826433528
1.40610e-05	-0.0008454731446272872
1.40613e-05	-0.0006531732970650448
1.40615e-05	-0.0005912670751101676
1.40618e-05	-0.0006813549593179958
1.40620e-05	-0.0008304398762378538
1.40623e-05	-0.0009705671072100372
1.40625e-05	-0.0009956369263895513
1.40628e-05	-0.0008893633534359402
1.40630e-05	-0.000749811774437234
1.40633e-05	-0.0006300220222673686
1.40635e-05	-0.0005920711323113334
1.40638e-05	-0.0006488205453668196
1.40640e-05	-0.0007407238711268555
1.40643e-05	-0.0008243549092388598
1.40645e-05	-0.0008331510330253625
1.40648e-05	-0.0007570522650589042
1.40650e-05	-0.0006576479659759103
1.40653e-05	-0.0005683190335756462
1.40655e-05	-0.0005281041946398311
1.40658e-05	-0.0005452113371254068
1.40660e-05	-0.0005824935581052171
1.40663e-05	-0.000612904712392364
1.40665e-05	-0.0005949090403995127
1.40668e-05	-0.0005223662245142206
1.40670e-05	-0.0004340155399738592
1.40673e-05	-0.0003509238321836878
1.40675e-05	-0.0002976998824073037
1.40678e-05	-0.0002796387617136187
1.40680e-05	-0.0002736262426981302
1.40683e-05	-0.0002628769052136258
1.40685e-05	-0.00022153116575586386
1.40688e-05	-0.0001459024000719724
1.40690e-05	-6.0415539608454555e-05
1.40693e-05	2.1576136752658552e-05
1.40695e-05	8.450200560280273e-05
1.40698e-05	0.00012489037592418786
1.40700e-05	0.0001570646326105018
1.40703e-05	0.0001913826172721351
1.40705e-05	0.00024388503421633674
1.40708e-05	0.00031672259579420306
1.40710e-05	0.00039443759754737153
1.40713e-05	0.00046850869268339623
1.40715e-05	0.000529026405781151
1.40718e-05	0.0005736606167111128
1.40720e-05	0.000611227574834146
1.40723e-05	0.0006480590233977583
1.40725e-05	0.000694045579263985
1.40728e-05	0.0007503766072017195
1.40730e-05	0.0008072120272870086
1.40733e-05	0.0008590574847344607
1.40735e-05	0.0008996506323806369
1.40738e-05	0.0009270017841760304
1.40740e-05	0.0009518775847669926
1.40743e-05	0.0009764618200482543
1.40745e-05	0.0010076326572076722
1.40748e-05	0.0010463783178499058
1.40750e-05	0.0010864978317191914
1.40753e-05	0.0011244592022328643
1.40755e-05	0.0011562776496916115
1.40758e-05	0.0011809554752841927
1.40760e-05	0.0012043065844050292
1.40763e-05	0.0012283565864423893
1.40765e-05	0.0012572478842716546
1.40768e-05	0.0012914013937375694
1.40770e-05	0.0013265061623987306
1.40773e-05	0.0013616109310598918
1.40775e-05	0.001391387485679785
1.40778e-05	0.0014199578429242468
1.40780e-05	0.0014481415189741731
1.40783e-05	0.0014762376584049825
1.40785e-05	0.0015043337978359822
1.40788e-05	0.0015364400400587862
1.40790e-05	0.00156945408655248
1.40793e-05	0.0016024681330463978
1.40795e-05	0.0016354821795403155
1.40798e-05	0.0016651547110226436
1.40800e-05	0.001694070792669101
1.40803e-05	0.0017229868743155582
1.40805e-05	0.0017519029559618195
1.40808e-05	0.0017812690371034967
1.40810e-05	0.0018107369888168336
1.40813e-05	0.0018402049405299708
1.40815e-05	0.0018696728922433076
1.40818e-05	0.0018974189644668123
1.40820e-05	0.0019214277102083254
1.40823e-05	0.0019454364559496758
1.40825e-05	0.0019694452016911887
1.40828e-05	0.001993453947432702
1.40830e-05	0.002006412949623151
1.40833e-05	0.002016870518580323
1.40835e-05	0.0020273280875374943
1.40838e-05	0.002037785656494595
1.40840e-05	0.002048243225451767
1.40843e-05	0.0020587007944089385
1.40845e-05	0.0020691583633660397
1.40848e-05	0.002079615932323211
1.40850e-05	0.002090073501280383
1.40853e-05	0.002100531070237484
1.40855e-05	0.0021109886391946554
1.40858e-05	0.0021214462081518273
1.40860e-05	0.0021125578199874813
1.40863e-05	0.0020992899075511972
1.40865e-05	0.002086021995114913
1.40868e-05	0.002072754082678719
1.40870e-05	0.002059486170242435
1.40873e-05	0.0020462182578061504
1.40875e-05	0.002032950345369956
1.40878e-05	0.002019682432933672
1.40880e-05	0.002006414520497388
1.40883e-05	0.0019931466080611937
1.40885e-05	0.0019798786956249097
1.40888e-05	0.001966610783188625
1.40890e-05	0.0019432985756277705
1.40893e-05	0.001917712547545904
1.40895e-05	0.0018921265194640376
1.40898e-05	0.0018665404913823446
1.40900e-05	0.0018409544633004782
1.40903e-05	0.0018153684352186117
1.40905e-05	0.0017892077194253291
1.40908e-05	0.0017617996482766607
1.40910e-05	0.0017343915771278068
1.40913e-05	0.0017069835059789528
1.40915e-05	0.0016795754348302844
1.40918e-05	0.0016521673636814304
1.40920e-05	0.0016247592925325762
1.40923e-05	0.001600420283874028
1.40925e-05	0.0015767760474401909
1.40928e-05	0.0015531318110063536
1.40930e-05	0.0015294875745726767
1.40933e-05	0.0015068240042546942
1.40935e-05	0.0014862889623661394
1.40938e-05	0.0014657539204777235
1.40940e-05	0.0014452188785891687
1.40943e-05	0.001424683836700614
1.40945e-05	0.0013998380454542168
1.40948e-05	0.0013740163897759644
1.40950e-05	0.0013481947340977121
1.40953e-05	0.0013191015476263972
1.40955e-05	0.0012892677542967015
1.40958e-05	0.0012594339609670055
1.40960e-05	0.0012242546612384426
1.40963e-05	0.0011878652495009212
1.40965e-05	0.0011514758377633998
1.40968e-05	0.0011102341552933425
1.40970e-05	0.0010678940191602081
1.40973e-05	0.0010227173745105407
1.40975e-05	0.0009768986030423755
1.40978e-05	0.0009274753081683132
1.40980e-05	0.0008772360238007022
1.40983e-05	0.0008269967394334316
1.40985e-05	0.0007729391186819687
1.40988e-05	0.0007180171056040838
1.40990e-05	0.000661167097337775
1.40993e-05	0.0006038806308663123
1.40995e-05	0.0005453492569378073
1.40998e-05	0.00048653606172785707
1.41000e-05	0.0004277228665183054
1.41003e-05	0.0003679328349682284
1.41005e-05	0.00030792166788901813
1.41008e-05	0.00024796362379129794
1.41010e-05	0.00018842813699674466
1.41013e-05	0.0001296833576075177
1.41015e-05	7.206268456288564e-05
1.41018e-05	1.578333987786862e-05
1.41020e-05	-3.905985929428425e-05
1.41023e-05	-9.229319619951485e-05
1.41025e-05	-0.0001435898919019586
1.41028e-05	-0.00019258280096864634
1.41030e-05	-0.00023891027462096258
1.41033e-05	-0.00028220682365775253
1.41035e-05	-0.0003221417060367031
1.41038e-05	-0.00035866743054372064
1.41040e-05	-0.0003920935272568973
1.41043e-05	-0.0004226544072716642
1.41045e-05	-0.00045031104560656584
1.41048e-05	-0.000474934853355526
1.41050e-05	-0.0004963943409017269
1.41053e-05	-0.0005145555212676812
1.41055e-05	-0.0005293062728328029
1.41058e-05	-0.0005407119955916757
1.41060e-05	-0.0005490615553696123
1.41063e-05	-0.0005545968633030205
1.41065e-05	-0.0005562764494121972
1.41068e-05	-0.000557199069941503
1.41070e-05	-0.0005536943165715774
1.41073e-05	-0.0005491872973870323
1.41075e-05	-0.000540370968556454
1.41078e-05	-0.0005305791012146409
1.41080e-05	-0.0005171504751688477
1.41083e-05	-0.0005028985622248289
1.41085e-05	-0.00048560429366260253
1.41088e-05	-0.0004676212987578609
1.41090e-05	-0.000446935202010129
1.41093e-05	-0.0004256371789531031
1.41095e-05	-0.0004020197213458513
1.41098e-05	-0.00037787719176324655
1.41100e-05	-0.000351897606131936
1.41103e-05	-0.00032550214903367546
1.41105e-05	-0.00029910669193541494
1.41108e-05	-0.0002717374084435762
1.41110e-05	-0.00024414767081188516
1.41113e-05	-0.00021655793318019418
1.41115e-05	-0.00018926830815648788
1.41118e-05	-0.00016204662241539115
1.41120e-05	-0.0001348249366742944
1.41123e-05	-0.00010866725903586267
1.41125e-05	-8.358599568240705e-05
1.41128e-05	-5.968745538065279e-05
1.41130e-05	-3.716619104670858e-05
1.41133e-05	-1.6216367805469e-05
1.41135e-05	3.0454054456110198e-06
1.41138e-05	2.112067399872634e-05
1.41140e-05	3.9187776678466776e-05
1.41143e-05	5.804015175587693e-05
1.41145e-05	7.773403263665386e-05
1.41148e-05	9.808655104335757e-05
1.41150e-05	0.00011889213630938625
1.41153e-05	0.00013994547950313613
1.41155e-05	0.00016108986810003885
1.41158e-05	0.00018255576974555716
1.41160e-05	0.00020499757089445752
1.41163e-05	0.00022882849726129113
1.41165e-05	0.0002539999947426158
1.41168e-05	0.00028031370125113276
1.41170e-05	0.00030755710531181604
1.41173e-05	0.00033551777762258673
1.41175e-05	0.00036426541486640713
1.41178e-05	0.00039316287006117633
1.41180e-05	0.000423988312533726
1.41183e-05	0.0004552502114213801
1.41185e-05	0.00048651211030882244
1.41188e-05	0.0005195588401061627
1.41190e-05	0.0005530096186799142
1.41193e-05	0.0005864603972534389
1.41195e-05	0.0006205908177438305
1.41198e-05	0.0006548750950972663
1.41200e-05	0.0006891593724504697
1.41203e-05	0.0007234436498039055
1.41205e-05	0.0007577279271573413
1.41208e-05	0.0007911371098924983
1.41210e-05	0.0008243481893186081
1.41213e-05	0.0008575592687447179
1.41215e-05	0.0008907703481706026
1.41218e-05	0.0009239814275967124
1.41220e-05	0.0009543884394786386
1.41223e-05	0.00098416066850544
1.41225e-05	0.001013932897532443
1.41228e-05	0.0010402773316961539
1.41230e-05	0.0010658457840492595
1.41233e-05	0.0010914142364025381
1.41235e-05	0.0011123392869382845
1.41238e-05	0.0011322131674089421
1.41240e-05	0.0011520870478797347
1.41243e-05	0.0011679072703324337
1.41245e-05	0.0011828098285100424
1.41248e-05	0.001197712386687752
1.41250e-05	0.0012082699588529262
1.41253e-05	0.001217843916114866
1.41255e-05	0.001227417873376741
1.41258e-05	0.001232622290425721
1.41260e-05	0.001236837534008655
1.41263e-05	0.00124105277759156
1.41265e-05	0.0012416138435442324
1.41268e-05	0.001241347679313428
1.41270e-05	0.0012410815150826256
1.41273e-05	0.001235056903555048
1.41275e-05	0.0012277286987444288
1.41278e-05	0.001220400493933859
1.41280e-05	0.0012130722891232396
1.41283e-05	0.0012057440843126204
1.41285e-05	0.0011984158795020506
1.41288e-05	0.0011910876746914314
1.41290e-05	0.0011817632731487562
1.41293e-05	0.0011681061416060742
1.41295e-05	0.0011544490100633
1.41298e-05	0.0011407918785205254
1.41300e-05	0.0011271347469778434
1.41303e-05	0.001113477615435069
1.41305e-05	0.0010998204838922946
1.41308e-05	0.0010861633523496126
1.41310e-05	0.0010714621008949868
1.41313e-05	0.0010565244823028536
1.41315e-05	0.0010415868637108218
1.41318e-05	0.0010266492451186887
1.41320e-05	0.0010117116265265555
1.41323e-05	0.0009967740079345237
1.41325e-05	0.0009841006204486659
1.41328e-05	0.0009719398080216865
1.41330e-05	0.0009597789955947896
1.41333e-05	0.0009476181831678102
1.41335e-05	0.0009354573707408308
1.41338e-05	0.0009232965583138515
1.41340e-05	0.0009100211006791097
1.41343e-05	0.0008964933104394081
1.41345e-05	0.0008829655201997064
1.41348e-05	0.0008657642032404449
1.41350e-05	0.0008477312758639164
1.41353e-05	0.0008296983484873877
1.41355e-05	0.0008085450283840793
1.41358e-05	0.0007866853159510094
1.41360e-05	0.0007648256035179394
1.41363e-05	0.0007387417300915747
1.41365e-05	0.000711701594044867
1.41368e-05	0.0006815153007639001
1.41370e-05	0.0006506167826022612
1.41373e-05	0.000617295182528982
1.41375e-05	0.0005834250468621794
1.41378e-05	0.0005472424181123234
1.41380e-05	0.0005105362887904949
1.41383e-05	0.00047111461045042097
1.41385e-05	0.0004310781880173607
1.41388e-05	0.00038897786004896926
1.41390e-05	0.000346410306584646
1.41393e-05	0.0003026082875280224
1.41395e-05	0.0002585268110110008
1.41398e-05	0.00021365656442367132
1.41400e-05	0.00016860775661810685
1.41403e-05	0.0001228940779797123
1.41405e-05	7.702988634583032e-05
1.41408e-05	3.114277600823313e-05
1.41410e-05	-1.4464320351029655e-05
1.41413e-05	-5.949632692398816e-05
1.41415e-05	-0.00010368803081822753
1.41418e-05	-0.00014686170606872354
1.41420e-05	-0.0001889331857550955
1.41423e-05	-0.0002297592968552318
1.41425e-05	-0.0002690892761118776
1.41428e-05	-0.000306637876922052
1.41430e-05	-0.0003421167515201784
1.41433e-05	-0.0003752375919892086
1.41435e-05	-0.0004057715432130916
1.41438e-05	-0.0004334157215374718
1.41440e-05	-0.00046051547678068643
1.41443e-05	-0.0004859365007326666
1.41445e-05	-0.0005109774946653013
1.41448e-05	-0.0005341296503986887
1.41450e-05	-0.000556854212257611
1.41453e-05	-0.0005771210679348687
1.41455e-05	-0.0005968315498000666
1.41458e-05	-0.0006140834078654377
