Time(s)	Current(A)
5.00000e-06	-0.0008445140481070979
5.00025e-06	-0.0008438680541946748
5.00050e-06	-0.0008432220602822494
5.00075e-06	-0.0008430603720621325
5.00100e-06	-0.0008446213518509894
5.00125e-06	-0.0008461823316398514
5.00150e-06	-0.0008477433114287083
5.00175e-06	-0.0008493042912175652
5.00200e-06	-0.0008508652710064273
5.00225e-06	-0.0008524262507952842
5.00250e-06	-0.0008540462650525465
5.00275e-06	-0.0008558762640193914
5.00300e-06	-0.0008577062629862301
5.00325e-06	-0.0008595362619530687
5.00350e-06	-0.0008613662609199135
5.00375e-06	-0.0008631962598867522
5.00400e-06	-0.0008650262588535969
5.00425e-06	-0.0008667188282348241
5.00450e-06	-0.0008679225626625146
5.00475e-06	-0.0008691262970902092
5.00500e-06	-0.0008697528493986811
5.00525e-06	-0.0008683263736552283
5.00550e-06	-0.0008668998979117707
5.00575e-06	-0.0008647011920048163
5.00600e-06	-0.0008597556751080717
5.00625e-06	-0.0008548101582113104
5.00650e-06	-0.0008491314633375203
5.00675e-06	-0.00084084486550945
5.00700e-06	-0.0008325582676813515
5.00725e-06	-0.0008233499156290912
5.00750e-06	-0.000810862897769076
5.00775e-06	-0.0007983758799090184
5.00800e-06	-0.0007850922093667577
5.00825e-06	-0.0007689748573057295
5.00850e-06	-0.0007528575052447559
5.00875e-06	-0.0007360418122095045
5.00900e-06	-0.0007167421309110044
5.00925e-06	-0.0006974424496125697
5.00950e-06	-0.0006775044788049559
5.00975e-06	-0.0006552961218854926
5.01000e-06	-0.0006330877649661046
5.01025e-06	-0.0006104846497095291
5.01050e-06	-0.0005864773850295291
5.01075e-06	-0.0005624701203496104
5.01100e-06	-0.0005382241059636053
5.01125e-06	-0.0005131288624909144
5.01150e-06	-0.0004880336190183084
5.01175e-06	-0.0004629221492174593
5.01200e-06	-0.00043775296261285436
5.01225e-06	-0.00041258377600833463
5.01250e-06	-0.00038767833216854936
5.01275e-06	-0.0003637110173465709
5.01300e-06	-0.0003397437025245925
5.01325e-06	-0.0003161563620281411
5.01350e-06	-0.00029392058444982445
5.01375e-06	-0.0002721394527500314
5.01400e-06	-0.0002519754895503699
5.01425e-06	-0.00023224164433100432
5.01450e-06	-0.00021435580895021118
5.01475e-06	-0.00019783905647689177
5.01500e-06	-0.0001821676333061762
5.01525e-06	-0.00016644179913960182
5.01550e-06	-0.00015045929605873184
5.01575e-06	-0.00013425224114165215
5.01600e-06	-0.00011804518622457244
5.01625e-06	-0.00010191532292281643
5.01650e-06	-8.606002902723283e-05
5.01675e-06	-7.025377496159975e-05
5.01700e-06	-5.452640348004088e-05
5.01725e-06	-3.8312201468863844e-05
5.01750e-06	-2.1448165656591172e-05
5.01775e-06	-4.034983179327327e-06
5.01800e-06	1.379013415548573e-05
5.01825e-06	3.189000404340668e-05
5.01850e-06	5.013382604201997e-05
5.01875e-06	6.845828439696147e-05
5.01900e-06	8.699863173486288e-05
5.01925e-06	0.00010603793608809572
5.01950e-06	0.00012565934568031442
5.01975e-06	0.00014542034810511494
5.02000e-06	0.00016567788011962646
5.02025e-06	0.000185935412134138
5.02050e-06	0.00020620041758420704
5.02075e-06	0.00022649200593098372
5.02100e-06	0.00024678359427782913
5.02125e-06	0.00026707518262460584
5.02150e-06	0.0002873667709713825
5.02175e-06	0.0003072184797830871
5.02200e-06	0.00032689865162588487
5.02225e-06	0.00034657882346868257
5.02250e-06	0.000366258995311547
5.02275e-06	0.00038559956350188456
5.02300e-06	0.000403732166647089
5.02325e-06	0.00042161072833655626
5.02350e-06	0.00043858566841768325
5.02375e-06	0.00045510047755921635
5.02400e-06	0.0004699786079219463
5.02425e-06	0.00048485673828462585
5.02450e-06	0.0004990412495300529
5.02475e-06	0.0005107585680872955
5.02500e-06	0.0005224758866444983
5.02525e-06	0.0005336518862055474
5.02550e-06	0.0005429024223008984
5.02575e-06	0.0005521529583962494
5.02600e-06	0.0005608175839615162
5.02625e-06	0.0005673981346507664
5.02650e-06	0.0005739786853400167
5.02675e-06	0.0005799781197383689
5.02700e-06	0.0005839105322969146
5.02725e-06	0.0005878429448554602
5.02750e-06	0.0005909453036586057
5.02775e-06	0.0005910951738335426
5.02800e-06	0.0005912450440084796
5.02825e-06	0.0005913949141834171
5.02850e-06	0.000591544784358354
5.02875e-06	0.000591694654533291
5.02900e-06	0.0005918445247082284
5.02925e-06	0.0005919943948831653
5.02950e-06	0.0005912569944420889
5.02975e-06	0.0005873635858669936
5.03000e-06	0.0005834701772918984
5.03025e-06	0.0005795767687167899
5.03050e-06	0.0005756833601416947
5.03075e-06	0.0005717899515665995
5.03100e-06	0.000567896542991491
5.03125e-06	0.0005640031344163958
5.03150e-06	0.0005597890812901463
5.03175e-06	0.0005544345003550373
5.03200e-06	0.0005490799194199465
5.03225e-06	0.0005437253384848557
5.03250e-06	0.0005383707575497468
5.03275e-06	0.000533016176614656
5.03300e-06	0.0005277717609950098
5.03325e-06	0.0005229192017327276
5.03350e-06	0.0005180666424704618
5.03375e-06	0.0005132140832081796
5.03400e-06	0.0005083615239459138
5.03425e-06	0.000503508964683648
5.03450e-06	0.0004987758756483243
5.03475e-06	0.0004944677403996026
5.03500e-06	0.000490159605150881
5.03525e-06	0.0004858514699021448
5.03550e-06	0.00048154333465342316
5.03575e-06	0.0004772351994047016
5.03600e-06	0.00047292706415596536
5.03625e-06	0.00046861892890724373
5.03650e-06	0.00046290973617139756
5.03675e-06	0.00045665418213607176
5.03700e-06	0.0004503986281007672
5.03725e-06	0.00044414307406546267
5.03750e-06	0.0004378875200301369
5.03775e-06	0.00043163196599483233
5.03800e-06	0.00042537641195950653
5.03825e-06	0.00041863730099476294
5.03850e-06	0.0004101781853610219
5.03875e-06	0.00040171906972725227
5.03900e-06	0.00039325995409351125
5.03925e-06	0.00038480083845977023
5.03950e-06	0.00037634172282600053
5.03975e-06	0.0003678826071922595
5.04000e-06	0.0003591396308714773
5.04025e-06	0.00034938696638922323
5.04050e-06	0.00033963430190700223
5.04075e-06	0.0003298816374247812
5.04100e-06	0.0003201289729425272
5.04125e-06	0.0003103763084603062
5.04150e-06	0.0003006236439780852
5.04175e-06	0.0002908880069928326
5.04200e-06	0.00028121293655636456
5.04225e-06	0.00027153786611986374
5.04250e-06	0.00026186279568339566
5.04275e-06	0.0002521877252469276
5.04300e-06	0.0002433007797752346
5.04325e-06	0.00023472117428340592
5.04350e-06	0.00022614156879157725
5.04375e-06	0.00021756196329971952
5.04400e-06	0.00020921621747531464
5.04425e-06	0.00020181664380040704
5.04450e-06	0.00019492787004986268
5.04475e-06	0.0001883375704625486
5.04500e-06	0.0001811084238327838
5.04525e-06	0.00017197568419324407
5.04550e-06	0.0001603987936324271
5.04575e-06	0.00014647787264022424
5.04600e-06	0.0001304002364807453
5.04625e-06	0.00011235324532727649
5.04650e-06	9.250923936520469e-05
5.04675e-06	7.088357059666933e-05
5.04700e-06	4.7037502663850374e-05
5.04725e-06	2.0327251726892664e-05
5.04750e-06	-9.437289119323082e-06
5.04775e-06	-4.2044922528927415e-05
5.04800e-06	-7.722980538851365e-05
5.04825e-06	-0.00011472613116624377
5.04850e-06	-0.00015427747655566486
5.04875e-06	-0.000195725797831818
5.04900e-06	-0.00023919747978933242
5.04925e-06	-0.0002849473171480306
5.04950e-06	-0.0003331348283670152
5.04975e-06	-0.00038358452857818997
5.05000e-06	-0.0004346518170637385
5.05025e-06	-0.0004879158576802599
5.05050e-06	-0.0005416337681984952
5.05075e-06	-0.0005969660870783466
5.05100e-06	-0.0006522984059580105
5.05125e-06	-0.0007079718013209339
5.05150e-06	-0.0007648584005650556
5.05175e-06	-0.0008217449998089846
5.05200e-06	-0.0008783807913666541
5.05225e-06	-0.0009341244637861824
5.05250e-06	-0.0009898681362055218
5.05275e-06	-0.001044804302908325
5.05300e-06	-0.0010968681840176596
5.05325e-06	-0.0011489320651268176
5.05350e-06	-0.001199691248960868
5.05375e-06	-0.0012458096443640518
5.05400e-06	-0.0012919280397670793
5.05425e-06	-0.0013364384064654925
5.05450e-06	-0.001375229039436255
5.05475e-06	-0.001412429628485916
5.05500e-06	-0.0014439744554108238
5.05525e-06	-0.001473848038649156
5.05550e-06	-0.0014977770334276997
5.05575e-06	-0.0015199730001458163
5.05600e-06	-0.0015360046123222644
5.05625e-06	-0.0015502360728315385
5.05650e-06	-0.0015580644211478172
5.05675e-06	-0.0015640683996506757
5.05700e-06	-0.00156358312238164
5.05725e-06	-0.001560939394317666
5.05750e-06	-0.0015506180894947045
5.05775e-06	-0.0015402967846717432
5.05800e-06	-0.0015275705940883226
5.05825e-06	-0.0015062902613094317
5.05850e-06	-0.001485009928530541
5.05875e-06	-0.00146190350580254
5.05900e-06	-0.0014323017088066915
5.05925e-06	-0.0014014433911044026
5.05950e-06	-0.0013661156482968355
5.05975e-06	-0.0013297229329476542
5.06000e-06	-0.0012895421264112908
5.06025e-06	-0.001248680772084412
5.06050e-06	-0.0012050086490399316
5.06075e-06	-0.0011596121684003008
5.06100e-06	-0.001112742418245466
5.06125e-06	-0.001064684104196536
5.06150e-06	-0.0010157298607484854
5.06175e-06	-0.0009661669655076004
5.06200e-06	-0.0009162815886783422
5.06225e-06	-0.0008663594318923479
5.06250e-06	-0.0008166868142666882
5.06275e-06	-0.0007675546410197614
5.06300e-06	-0.0007192711313903598
5.06325e-06	-0.000672165311449447
5.06350e-06	-0.0006265714595516624
5.06375e-06	-0.0005828204380680044
5.06400e-06	-0.0005412421225859976
5.06425e-06	-0.0005021663958077231
5.06450e-06	-0.00046592309993214516
5.06475e-06	-0.00043283708506964994
5.06500e-06	-0.00040319445943483333
5.06525e-06	-0.0003771867168142804
5.06550e-06	-0.0003549085189240171
5.06575e-06	-0.0003364166269679842
5.06600e-06	-0.00032176532314736434
5.06625e-06	-0.0003110087987944026
5.06650e-06	-0.0003042012771746065
5.06675e-06	-0.000301393774085674
5.06700e-06	-0.00030261309591521877
5.06725e-06	-0.0003078267483935429
5.06750e-06	-0.0003169415885437327
5.06775e-06	-0.0003298407085447172
5.06800e-06	-0.00034640564941980075
5.06825e-06	-0.00036651793586187694
5.06850e-06	-0.0003900591152810754
5.06875e-06	-0.0004169086849752114
5.06900e-06	-0.00044693105193503024
5.06925e-06	-0.0004799533821409362
5.06950e-06	-0.0005160268224246814
5.06975e-06	-0.0005550716482505216
5.07000e-06	-0.0005950645455244644
5.07025e-06	-0.000638429718566285
5.07050e-06	-0.0006826866371320128
5.07075e-06	-0.0007301154810078996
5.07100e-06	-0.0007775443248836257
5.07125e-06	-0.0008255854390901642
5.07150e-06	-0.0008758043895817329
5.07175e-06	-0.0009260233400731314
5.07200e-06	-0.0009762795289449162
5.07225e-06	-0.0010266681741704312
5.07250e-06	-0.0010770568193959461
5.07275e-06	-0.0011268938333270414
5.07300e-06	-0.0011747687031057937
5.07325e-06	-0.001222643572884546
5.07350e-06	-0.001269588713651042
5.07375e-06	-0.0013132268224148858
5.07400e-06	-0.0013554438905758668
5.07425e-06	-0.0013926063388555521
5.07450e-06	-0.0014297687871351117
5.07475e-06	-0.0014646997767861435
5.07500e-06	-0.0014916935019246408
5.07525e-06	-0.0015186872270630469
5.07550e-06	-0.0015436070988646994
5.07575e-06	-0.001561150305787469
5.07600e-06	-0.0015769726703617258
5.07625e-06	-0.0015866740247908843
5.07650e-06	-0.0015946066370570472
5.07675e-06	-0.0015962478602641634
5.07700e-06	-0.001595696992103483
5.07725e-06	-0.001587348888180381
5.07750e-06	-0.0015790007842572788
5.07775e-06	-0.0015682052595374222
5.07800e-06	-0.0015487042961475487
5.07825e-06	-0.0015292033327576752
5.07850e-06	-0.0015078353623319345
5.07875e-06	-0.001479826476184644
5.07900e-06	-0.0014504766634707246
5.07925e-06	-0.0014163571952882836
5.07950e-06	-0.0013810838525081975
5.07975e-06	-0.001341706195277254
5.08000e-06	-0.0013015870872377724
5.08025e-06	-0.0012584024638921242
5.08050e-06	-0.0012133162658648372
5.08075e-06	-0.001166556746081
5.08100e-06	-0.0011183644027232063
5.08125e-06	-0.0010690042436022678
5.08150e-06	-0.0010187629734523741
5.08175e-06	-0.000967934746789281
5.08200e-06	-0.0009168139850762406
5.08225e-06	-0.0008656949408128019
5.08250e-06	-0.0008148719502522219
5.08275e-06	-0.000764640673866293
5.08300e-06	-0.0007153043696713215
5.08325e-06	-0.0006671817646918548
5.08350e-06	-0.0006206051831115505
5.08375e-06	-0.000575911394568958
5.08400e-06	-0.0005334373433251369
5.08425e-06	-0.0004935200460778898
5.08450e-06	-0.0004565003414845134
5.08475e-06	-0.00042275537069461067
5.08500e-06	-0.0003927418326241841
5.08525e-06	-0.0003668710798570343
5.08550e-06	-0.00034533241546594497
5.08575e-06	-0.000328168970705083
5.08600e-06	-0.0003154067807293472
5.08625e-06	-0.0003070718288726769
5.08650e-06	-0.00030319259208880906
5.08675e-06	-0.0003038202164105504
5.08700e-06	-0.0003090556790277126
5.08725e-06	-0.000318971538052221
5.08750e-06	-0.0003335012607163577
5.08775e-06	-0.0003524867119382511
5.08800e-06	-0.0003757591157755659
5.08825e-06	-0.0004031496082467907
5.08850e-06	-0.0004344909618065708
5.08875e-06	-0.00046963006843544716
5.08900e-06	-0.0005084451333696268
5.08925e-06	-0.0005507965255860349
5.08950e-06	-0.0005967644958207379
5.08975e-06	-0.0006462360017385143
5.09000e-06	-0.0006968080921138623
5.09025e-06	-0.0007512949447187581
5.09050e-06	-0.0008067959364541502
5.09075e-06	-0.0008659042056998245
5.09100e-06	-0.0009250124749454987
5.09125e-06	-0.0009848219463824983
5.09150e-06	-0.0010471255833816783
5.09175e-06	-0.0011094292203808582
5.09200e-06	-0.0011717305113537791
5.09225e-06	-0.0012340234575459045
5.09250e-06	-0.00129631640373803
5.09275e-06	-0.001358079799385582
5.09300e-06	-0.0014179595917741105
5.09325e-06	-0.0014770398532322861
5.09350e-06	-0.0015332761952937877
5.09375e-06	-0.001587988024636777
5.09400e-06	-0.0016372771853554646
5.09425e-06	-0.001686566346073985
5.09450e-06	-0.0017333740579666885
5.09475e-06	-0.0017713552940098929
5.09500e-06	-0.0018093365300529687
5.09525e-06	-0.0018445757252482508
5.09550e-06	-0.0018700615227231188
5.09575e-06	-0.0018955473201979006
5.09600e-06	-0.0019181299375910967
5.09625e-06	-0.0019303859874526487
5.09650e-06	-0.0019426420373141594
5.09675e-06	-0.001951927949540005
5.09700e-06	-0.0019506491272297318
5.09725e-06	-0.001949370304919463
5.09750e-06	-0.0019453402024192758
5.09775e-06	-0.001931523837999272
5.09800e-06	-0.0019177074735793151
5.09825e-06	-0.0019017501194414897
5.09850e-06	-0.0018781772973400755
5.09875e-06	-0.0018530360437124744
5.09900e-06	-0.0018223159029273914
5.09925e-06	-0.0017902401335254503
5.09950e-06	-0.001753342413687725
5.09975e-06	-0.001715291266316533
5.10000e-06	-0.0016731373946983217
5.10025e-06	-0.001630241114275095
5.10050e-06	-0.0015842755022221805
5.10075e-06	-0.0015364154707812234
5.10100e-06	-0.0014869399729949236
5.10125e-06	-0.0014361698520729757
5.10150e-06	-0.0013844247460283222
5.10175e-06	-0.0013320087944206748
5.10200e-06	-0.0012792230217255314
5.10225e-06	-0.0012263684126433089
5.10250e-06	-0.0011737467467288435
5.10275e-06	-0.001121667298073872
5.10300e-06	-0.001070465547788819
5.10325e-06	-0.0010205035019257142
5.10350e-06	-0.0009721423796180295
5.10375e-06	-0.0009260158474530145
5.10400e-06	-0.0008826308255986755
5.10425e-06	-0.0008405183932431541
5.10450e-06	-0.00080293254243811
5.10475e-06	-0.000766476629097368
5.10500e-06	-0.0007340398861843901
5.10525e-06	-0.0007021642289253304
5.10550e-06	-0.0006722843448293667
5.10575e-06	-0.000643039593114027
5.10600e-06	-0.0006160539976455953
5.10625e-06	-0.0005898861733570265
5.10650e-06	-0.0005666271487555968
5.10675e-06	-0.000544093678611151
5.10700e-06	-0.0005241409946687586
5.10725e-06	-0.0005045547443074055
5.10750e-06	-0.0004862718926374062
5.10775e-06	-0.00046839908892629085
5.10800e-06	-0.0004519848195869976
5.10825e-06	-0.0004360922079676214
5.10850e-06	-0.0004220551249481189
5.10875e-06	-0.0004085383499382601
5.10900e-06	-0.00039687230262900567
5.10925e-06	-0.0003852062553197908
5.10950e-06	-0.0003739049427448774
5.10975e-06	-0.0003639009860891822
5.11000e-06	-0.000353897029433521
5.11025e-06	-0.0003443651733497482
5.11050e-06	-0.0003365125718414221
5.11075e-06	-0.0003286599703331226
5.11100e-06	-0.00032112010139159194
5.11125e-06	-0.0003146926174479905
5.11150e-06	-0.000308265133504389
5.11175e-06	-0.0003020669385217914
5.11200e-06	-0.00029668432089669395
5.11225e-06	-0.00029130170327159655
5.11250e-06	-0.0002861867051035299
5.11275e-06	-0.000282023625286061
5.11300e-06	-0.00027786054546859206
5.11325e-06	-0.0002738265098803109
5.11350e-06	-0.0002702514826584971
5.11375e-06	-0.0002666764554366833
5.11400e-06	-0.000263176777816422
5.11425e-06	-0.0002599984715930727
5.11450e-06	-0.000257009944762623
5.11475e-06	-0.00025402141793216316
5.11500e-06	-0.00025103289110171346
5.11525e-06	-0.0002477133621829497
5.11550e-06	-0.0002432164638554612
5.11575e-06	-0.00023871956552797276
5.11600e-06	-0.00023422266720046908
5.11625e-06	-0.00022942769631049669
5.11650e-06	-0.0002235724858358044
5.11675e-06	-0.00021750278637828988
5.11700e-06	-0.00021067015286153865
5.11725e-06	-0.00020352194578673183
5.11750e-06	-0.00019525124835133967
5.11775e-06	-0.00018670346645554723
5.11800e-06	-0.00017717009933581771
5.11825e-06	-0.00016742031446738195
5.11850e-06	-0.00015690073494879555
5.11875e-06	-0.0001461738466295977
5.11900e-06	-0.0001347095640503045
5.11925e-06	-0.00012300723296446248
5.11950e-06	-0.00011045816695053058
5.11975e-06	-9.772773866722309e-05
5.12000e-06	-8.435220754187501e-05
5.12025e-06	-7.086588773796214e-05
5.12050e-06	-5.698549428467053e-05
5.12075e-06	-4.305179991359664e-05
5.12100e-06	-2.8890074586721933e-05
5.12125e-06	-1.4559069218289643e-05
5.12150e-06	-9.739584925101037e-08
5.12175e-06	1.4400961914867586e-05
5.12200e-06	2.8841349445934832e-05
5.12225e-06	4.322680575769918e-05
5.12250e-06	5.731926645797263e-05
5.12275e-06	7.106452900746423e-05
5.12300e-06	8.469570617369609e-05
5.12325e-06	9.783143566558753e-05
5.12350e-06	0.0001105394517029086
5.12375e-06	0.0001227312619318827
5.12400e-06	0.0001343146734008435
5.12425e-06	0.00014519751516809198
5.12450e-06	0.00015526158237877855
5.12475e-06	0.00016411838295671765
5.12500e-06	0.00017060911523491865
5.12525e-06	0.00017326446827711133
5.12550e-06	0.00017145024330398684
5.12575e-06	0.0001652479168790709
5.12600e-06	0.0001548351355901043
5.12625e-06	0.00014038954105300067
5.12650e-06	0.00012207249569720413
5.12675e-06	9.987602522622183e-05
5.12700e-06	7.330966750156693e-05
5.12725e-06	4.168856241249354e-05
5.12750e-06	4.85097719328721e-06
5.12775e-06	-3.691651097716249e-05
5.12800e-06	-8.326710200742531e-05
5.12825e-06	-0.00013385401852264648
5.12850e-06	-0.000188340695429266
5.12875e-06	-0.0002464966713322716
5.12900e-06	-0.0003083936758671641
5.12925e-06	-0.00037422522415255427
5.12950e-06	-0.0004438571167047281
5.12975e-06	-0.0005171573588509696
5.13000e-06	-0.0005938308763202864
5.13025e-06	-0.000671440962896946
5.13050e-06	-0.0007523824115835905
5.13075e-06	-0.0008341246110498522
5.13100e-06	-0.0009187150688956181
5.13125e-06	-0.0010033055267410973
5.13150e-06	-0.001088298279162294
5.13175e-06	-0.0011747219872885357
5.13200e-06	-0.0012611456954144847
5.13225e-06	-0.0013471682457872616
5.13250e-06	-0.0014317638841145621
5.13275e-06	-0.0015155871986054783
5.13300e-06	-0.0015966633689235817
5.13325e-06	-0.0016766413689332873
5.13350e-06	-0.0017527131938117415
5.13375e-06	-0.001827218452062502
5.13400e-06	-0.001896151456575885
5.13425e-06	-0.0019630246924242133
5.13450e-06	-0.0020225713623695358
5.13475e-06	-0.0020795354786869976
5.13500e-06	-0.00212731349091799
5.13525e-06	-0.0021721509910140324
5.13550e-06	-0.0022065291340414572
5.13575e-06	-0.002237877147574079
5.13600e-06	-0.002258447036449037
5.13625e-06	-0.0022759264037428965
5.13650e-06	-0.0022824128326444718
5.13675e-06	-0.00228572987771028
5.13700e-06	-0.0022777734725400183
5.13725e-06	-0.002266671927226738
5.13750e-06	-0.002244383166125075
5.13775e-06	-0.002219141834908182
5.13800e-06	-0.002183398256570928
5.13825e-06	-0.0021455723008560836
5.13850e-06	-0.002099020288911221
5.13875e-06	-0.0020465034764334607
5.13900e-06	-0.001988238345768457
5.13925e-06	-0.0019244876413220939
5.13950e-06	-0.0018556190543387644
5.13975e-06	-0.0017820601181396613
5.14000e-06	-0.0017042445166624445
5.14025e-06	-0.001622606351324404
5.14050e-06	-0.0015375785283494414
5.14075e-06	-0.001449587921072938
5.14100e-06	-0.0013590531237257619
5.14125e-06	-0.0012664217767488692
5.14150e-06	-0.0011722069220905797
5.14175e-06	-0.0010769592152126762
5.14200e-06	-0.0009812334021256804
5.14225e-06	-0.0008855694514421176
5.14250e-06	-0.0007922397852625351
5.14275e-06	-0.0007149694509154241
5.14300e-06	-0.0044993151872871244
5.14325e-06	-0.0137311422613926
