Time(s)	Current(A)
3.25000e-06	-0.00422039571232386
3.25025e-06	-0.004221613259698059
3.25050e-06	-0.004220349299743877
3.25075e-06	-0.004219085339789694
3.25100e-06	-0.004215513823238124
3.25125e-06	-0.004208154357033092
3.25150e-06	-0.0042007948908280475
3.25175e-06	-0.004191270246676891
3.25200e-06	-0.004178191373320708
3.25225e-06	-0.004165112499964547
3.25250e-06	-0.0041485484698777055
3.25275e-06	-0.004126263410783277
3.25300e-06	-0.004103978351688885
3.25325e-06	-0.004081693292594456
3.25350e-06	-0.004059408233500027
3.25375e-06	-0.004033456909445042
3.25400e-06	-0.004001487259727884
3.25425e-06	-0.003969517610010673
3.25450e-06	-0.003937547960293461
3.25475e-06	-0.0039055783105763032
3.25500e-06	-0.003871220947960387
3.25525e-06	-0.0038329440558049783
3.25550e-06	-0.0037946671636496345
3.25575e-06	-0.0037554967323419923
3.25600e-06	-0.0037148595195365423
3.25625e-06	-0.003673715005661728
3.25650e-06	-0.0036317377360867995
3.25675e-06	-0.003589506088805922
3.25700e-06	-0.003546809802184973
3.25725e-06	-0.0035040842010367456
3.25750e-06	-0.0034615807175047697
3.25775e-06	-0.0034195503613306723
3.25800e-06	-0.0033782235752069594
3.25825e-06	-0.0033377751836503595
3.25850e-06	-0.003298353695846733
3.25875e-06	-0.0032601603735831083
3.25900e-06	-0.0032234520206428315
3.25925e-06	-0.0031884995388015568
3.25950e-06	-0.003155574232305922
3.25975e-06	-0.0031249436784886227
3.26000e-06	-0.0030967720623864482
3.26025e-06	-0.0030709184683280952
3.26050e-06	-0.003047033985933344
3.26075e-06	-0.0030252994622444163
3.26100e-06	-0.0030052760268901835
3.26125e-06	-0.0029867906247232727
3.26150e-06	-0.002970829967685505
3.26175e-06	-0.0029565501778864335
3.26200e-06	-0.002945029601223118
3.26225e-06	-0.0029352852467124093
3.26250e-06	-0.0029284566343749114
3.26275e-06	-0.0029216280220374013
3.26300e-06	-0.0029174793206853053
3.26325e-06	-0.0029177298041250326
3.26350e-06	-0.00291798028756476
3.26375e-06	-0.002918230771004487
3.26400e-06	-0.0029184812544442145
3.26425e-06	-0.002918731737883942
3.26450e-06	-0.002925531215785225
3.26475e-06	-0.0029332358781136453
3.26500e-06	-0.0029409405404420526
3.26525e-06	-0.0029486452027704725
3.26550e-06	-0.0029563498650988927
3.26575e-06	-0.0029656037452955464
3.26600e-06	-0.002977400730737986
3.26625e-06	-0.002989197716180426
3.26650e-06	-0.0030015806106330816
3.26675e-06	-0.0030149252989740806
3.26700e-06	-0.003028269987315102
3.26725e-06	-0.003041865468922154
3.26750e-06	-0.0030558726380545617
3.26775e-06	-0.003069879807186993
3.26800e-06	-0.003083794897348509
3.26825e-06	-0.0030975588360685133
3.26850e-06	-0.0031113227747885407
3.26875e-06	-0.003124516611290432
3.26900e-06	-0.003136774601407306
3.26925e-06	-0.00314903259152416
3.26950e-06	-0.0031604377493855314
3.26975e-06	-0.0031704429478046255
3.27000e-06	-0.0031804481462237026
3.27025e-06	-0.003190582795806118
3.27050e-06	-0.003200929944830525
3.27075e-06	-0.003211277093854932
3.27100e-06	-0.0032224261878413827
3.27125e-06	-0.003234891707671967
3.27150e-06	-0.0032473572275025517
3.27175e-06	-0.0032610620301161825
3.27200e-06	-0.003276801166706592
3.27225e-06	-0.0032925403032970013
3.27250e-06	-0.0033082794398873842
3.27275e-06	-0.0033240185764777937
3.27300e-06	-0.003339757713068203
3.27325e-06	-0.0033554968496586125
3.27350e-06	-0.0033761913392737846
3.27375e-06	-0.0033975707444765554
3.27400e-06	-0.0034189501496793267
3.27425e-06	-0.0034403295548820615
3.27450e-06	-0.003461708960084833
3.27475e-06	-0.0034830883652876036
3.27500e-06	-0.0035059803253229826
3.27525e-06	-0.003531355206713954
3.27550e-06	-0.0035567300881049683
3.27575e-06	-0.0035821049694959826
3.27600e-06	-0.003607479850886954
3.27625e-06	-0.0036328547322779688
3.27650e-06	-0.003658229613668983
3.27675e-06	-0.003683558850114715
3.27700e-06	-0.003708813158493837
3.27725e-06	-0.0037340674668729593
3.27750e-06	-0.0037593217752520816
3.27775e-06	-0.003784576083631161
3.27800e-06	-0.0038098303920102833
3.27825e-06	-0.003835084700389405
3.27850e-06	-0.003859146997844081
3.27875e-06	-0.003881252560034296
3.27900e-06	-0.003903358122224511
3.27925e-06	-0.003922535667157873
3.27950e-06	-0.003936906750586317
3.27975e-06	-0.003951277834014784
3.28000e-06	-0.003965648917443252
3.28025e-06	-0.003980020000871695
3.28050e-06	-0.003994391084300163
3.28075e-06	-0.00400876216772863
3.28100e-06	-0.004023133251157074
3.28125e-06	-0.0040375043345855415
3.28150e-06	-0.004047503086960749
3.28175e-06	-0.0040503244769604044
3.28200e-06	-0.004053145866960054
3.28225e-06	-0.004055967256959709
3.28250e-06	-0.004058788646959364
3.28275e-06	-0.004061610036959015
3.28300e-06	-0.00406443142695867
3.28325e-06	-0.004067252816958325
3.28350e-06	-0.00407007420695798
3.28375e-06	-0.004069521137776656
3.28400e-06	-0.004063428754195606
3.28425e-06	-0.004057336370614556
3.28450e-06	-0.004051243987033516
3.28475e-06	-0.004045151603452466
3.28500e-06	-0.0040390592198714164
3.28525e-06	-0.004032966836290377
3.28550e-06	-0.004026874452709327
3.28575e-06	-0.004020782069128277
3.28600e-06	-0.004010868122282453
3.28625e-06	-0.004000425969224839
3.28650e-06	-0.003989983816167206
3.28675e-06	-0.003979541663109574
3.28700e-06	-0.003969099510051958
3.28725e-06	-0.0039586573569943264
3.28750e-06	-0.003948215203936694
3.28775e-06	-0.003937773050879062
3.28800e-06	-0.003927265867199468
3.28825e-06	-0.003916651933062541
3.28850e-06	-0.003906037998925614
3.28875e-06	-0.0038954240647887045
3.28900e-06	-0.003885442879770219
3.28925e-06	-0.0038765003786164222
3.28950e-06	-0.0038675578774626405
3.28975e-06	-0.0038586153763088436
3.29000e-06	-0.003849842626292972
3.29025e-06	-0.0038413485297952763
3.29050e-06	-0.0038328544332975954
3.29075e-06	-0.0038243603367998998
3.29100e-06	-0.003815866240302204
3.29125e-06	-0.003807372143804523
3.29150e-06	-0.003798878047306827
3.29175e-06	-0.0037903839508091315
3.29200e-06	-0.0037794356305541057
3.29225e-06	-0.0037681480940820436
3.29250e-06	-0.003756860557609963
3.29275e-06	-0.003745573021137882
3.29300e-06	-0.0037342854846658204
3.29325e-06	-0.0037229979481937393
3.29350e-06	-0.0037117104117216585
3.29375e-06	-0.003699267248488235
3.29400e-06	-0.003684927076099511
3.29425e-06	-0.003670586903710787
3.29450e-06	-0.0036562467313220634
3.29475e-06	-0.003641906558933364
3.29500e-06	-0.0036275663865446396
3.29525e-06	-0.003613226214155916
3.29550e-06	-0.0035982637343235104
3.29575e-06	-0.0035822797110675493
3.29600e-06	-0.0035662956878115878
3.29625e-06	-0.0035503116645556267
3.29650e-06	-0.0035343276412996925
3.29675e-06	-0.0035183436180437314
3.29700e-06	-0.00350235959478777
3.29725e-06	-0.0034864658163104565
3.29750e-06	-0.0034707201783720763
3.29775e-06	-0.003454974540433696
3.29800e-06	-0.003439630477279738
3.29825e-06	-0.0034249456157538446
3.29850e-06	-0.0034102607542279514
3.29875e-06	-0.0033961518710509966
3.29900e-06	-0.0033829884801711892
3.29925e-06	-0.00336982508929136
3.29950e-06	-0.003357548406561442
3.29975e-06	-0.003346727291956789
3.30000e-06	-0.003335906177352117
3.30025e-06	-0.0033261548711355986
3.30050e-06	-0.0033181596996631818
3.30075e-06	-0.0033101645281907515
3.30100e-06	-0.003304074645986803
3.30125e-06	-0.0033011123749691136
3.30150e-06	-0.0032981501039514296
3.30175e-06	-0.0032951878329337404
3.30200e-06	-0.003292225561916051
3.30225e-06	-0.003289263290898367
3.30250e-06	-0.003286301019880678
3.30275e-06	-0.0032858823622290475
3.30300e-06	-0.0032896391511874454
3.30325e-06	-0.0032933959401458372
3.30350e-06	-0.003297152729104235
3.30375e-06	-0.0033009095180626335
3.30400e-06	-0.003304666307021025
3.30425e-06	-0.003308423095979423
3.30450e-06	-0.00331416404552374
3.30475e-06	-0.003323162076786033
3.30500e-06	-0.0033321601080483414
3.30525e-06	-0.0033411581393106497
3.30550e-06	-0.003350156170572958
3.30575e-06	-0.0033591542018352512
3.30600e-06	-0.0033681522330975596
3.30625e-06	-0.003377150264359868
3.30650e-06	-0.003386913863661367
3.30675e-06	-0.0033979341745829614
3.30700e-06	-0.003408954485504556
3.30725e-06	-0.0034199747964261504
3.30750e-06	-0.0034309951073477262
3.30775e-06	-0.0034420154182693207
3.30800e-06	-0.0034530357291909152
3.30825e-06	-0.003464056040112491
3.30850e-06	-0.003474676344442133
3.30875e-06	-0.003484640021396442
3.30900e-06	-0.0034946036983507347
3.30925e-06	-0.0035039310197113307
3.30950e-06	-0.0035122137370286735
3.30975e-06	-0.0035204964543460162
3.31000e-06	-0.0035269899955805706
3.31025e-06	-0.003530546530228514
3.31050e-06	-0.0035341030648764577
3.31075e-06	-0.0035376595995243953
3.31100e-06	-0.003541216134172339
3.31125e-06	-0.0035447726688202824
3.31150e-06	-0.003548329203468226
3.31175e-06	-0.0035518857381161635
3.31200e-06	-0.003548648625310722
3.31225e-06	-0.0035444725127979733
3.31250e-06	-0.0035402964002852317
3.31275e-06	-0.0035361202877724827
3.31300e-06	-0.0035319441752597338
3.31325e-06	-0.003527768062746992
3.31350e-06	-0.0035235919502342433
3.31375e-06	-0.003517008541487172
3.31400e-06	-0.003506473456343219
3.31425e-06	-0.003495938371199284
3.31450e-06	-0.0034854032860553315
3.31475e-06	-0.003474868200911379
3.31500e-06	-0.0034643331157674442
3.31525e-06	-0.0034537980306234917
3.31550e-06	-0.003440049822586919
3.31575e-06	-0.0034258575053326525
3.31600e-06	-0.00341166518807841
3.31625e-06	-0.0033974728708241436
3.31650e-06	-0.0033832805535698772
3.31675e-06	-0.003369088236315635
3.31700e-06	-0.0033545420177788408
3.31725e-06	-0.00333941485564022
3.31750e-06	-0.0033242876935016246
3.31775e-06	-0.0033093233001883914
3.31800e-06	-0.0032946260986383845
3.31825e-06	-0.0032799288970883776
3.31850e-06	-0.0032656818071638343
3.31875e-06	-0.0032521735941007535
3.31900e-06	-0.0032386653810376723
3.31925e-06	-0.003225925060758062
3.31950e-06	-0.003214445268262493
3.31975e-06	-0.0032029654757669244
3.32000e-06	-0.003192580083267172
3.32025e-06	-0.003183991193653439
3.32050e-06	-0.0031754023040396913
3.32075e-06	-0.0031668134144259437
3.32100e-06	-0.0031594390329232106
3.32125e-06	-0.0031540583167483697
3.32150e-06	-0.0031486776005735287
3.32175e-06	-0.003143296884398697
3.32200e-06	-0.00313874117699945
3.32225e-06	-0.0031368014637814996
3.32250e-06	-0.003136932896679842
3.32275e-06	-0.0031370643295781844
3.32300e-06	-0.0031371957624765274
3.32325e-06	-0.00313732719537487
3.32350e-06	-0.003137458628273212
3.32375e-06	-0.003137590061171555
3.32400e-06	-0.003137721494069898
3.32425e-06	-0.003139626255125952
3.32450e-06	-0.0031444420077439608
3.32475e-06	-0.0031492577603619773
3.32500e-06	-0.0031540735129799943
3.32525e-06	-0.003158889265598003
3.32550e-06	-0.00316370501821602
3.32575e-06	-0.0031685207708340365
3.32600e-06	-0.0031733365234520453
3.32625e-06	-0.00317894430086385
3.32650e-06	-0.0031858522197534575
3.32675e-06	-0.003192760138643065
3.32700e-06	-0.003199668057532661
3.32725e-06	-0.0032065759764222687
3.32750e-06	-0.0032134838953118763
3.32775e-06	-0.0032203918142014727
3.32800e-06	-0.003227055831687188
3.32825e-06	-0.0032333194749242845
3.32850e-06	-0.0032395831181613816
3.32875e-06	-0.003245846761398468
3.32900e-06	-0.003252110404635565
3.32925e-06	-0.0032583740478726616
3.32950e-06	-0.003264637691109748
3.32975e-06	-0.003270075813508436
3.33000e-06	-0.0032741588092857644
3.33025e-06	-0.0032782418050630864
3.33050e-06	-0.0032812058092369107
3.33075e-06	-0.0032823329423828404
3.33100e-06	-0.00328346007552877
3.33125e-06	-0.0032827588505513327
3.33150e-06	-0.0032790563000457333
3.33175e-06	-0.003275353749540134
3.33200e-06	-0.003271651199034541
3.33225e-06	-0.0032679486485289416
3.33250e-06	-0.0032642460980233418
3.33275e-06	-0.003258048806771914
3.33300e-06	-0.0032477562953385684
3.33325e-06	-0.0032374637839052054
3.33350e-06	-0.0032271712724718424
3.33375e-06	-0.003216878761038497
3.33400e-06	-0.003206586249605134
3.33425e-06	-0.0031943164254725487
3.33450e-06	-0.003178800760710856
3.33475e-06	-0.0031632850959491367
3.33500e-06	-0.0031477694311874177
3.33525e-06	-0.0031322537664256987
3.33550e-06	-0.003116738101664006
3.33575e-06	-0.003098617344089109
3.33600e-06	-0.0030801365175811965
3.33625e-06	-0.0030616556910733157
3.33650e-06	-0.0030431748645654033
3.33675e-06	-0.003024694038057491
3.33700e-06	-0.0030059364057205993
3.33725e-06	-0.002986724385159533
3.33750e-06	-0.002967610951384273
3.33775e-06	-0.0029486593518981007
3.33800e-06	-0.002929958163729411
3.33825e-06	-0.0029116680361018594
3.33850e-06	-0.0028936465211071593
3.33875e-06	-0.0028764395786481747
3.33900e-06	-0.002859845971505607
3.33925e-06	-0.0028441031987338026
3.33950e-06	-0.0028297571057944258
3.33975e-06	-0.002815411012855073
3.34000e-06	-0.0028019210721849023
3.34025e-06	-0.00278983654089755
3.34050e-06	-0.002777752009610218
3.34075e-06	-0.002765768959103162
3.34100e-06	-0.0027539524934968697
3.34125e-06	-0.002742136027890578
3.34150e-06	-0.0027306249448061327
3.34175e-06	-0.002719615159769887
3.34200e-06	-0.002708605374733641
3.34225e-06	-0.0026975835329452347
3.34250e-06	-0.002686541899499125
3.34275e-06	-0.002675500266053015
3.34300e-06	-0.002664458632606924
3.34325e-06	-0.002653416999160814
3.34350e-06	-0.002642375365714704
3.34375e-06	-0.0026311047768783043
3.34400e-06	-0.002619802542442702
3.34425e-06	-0.00260850030800708
3.34450e-06	-0.0025971980735714586
3.34475e-06	-0.0025858958391358562
3.34500e-06	-0.0025744955315416566
3.34525e-06	-0.0025629342327987666
3.34550e-06	-0.002551372934055876
3.34575e-06	-0.0025398116353130052
3.34600e-06	-0.0025282503365701148
3.34625e-06	-0.0025168089108971716
3.34650e-06	-0.0025055642618296695
3.34675e-06	-0.0024943196127621484
3.34700e-06	-0.002483074963694627
3.34725e-06	-0.002471830314627125
3.34750e-06	-0.0024608056590855435
3.34775e-06	-0.002450142132021518
3.34800e-06	-0.0024396593400530246
3.34825e-06	-0.0024295847318072704
3.34850e-06	-0.002419800864221304
3.34875e-06	-0.002410319496642374
3.34900e-06	-0.0024012819095706405
3.34925e-06	-0.0023926341138040485
3.34950e-06	-0.0023844932224677887
3.34975e-06	-0.00237718443573285
3.35000e-06	-0.0023698756489979236
3.35025e-06	-0.0023630733553641537
3.35050e-06	-0.0023571024911178645
3.35075e-06	-0.0023511316268715857
3.35100e-06	-0.00234588688451256
3.35125e-06	-0.002341834101283039
3.35150e-06	-0.002337781318053524
3.35175e-06	-0.002333728534824003
3.35200e-06	-0.0023296757515944818
3.35225e-06	-0.0023256229683649605
3.35250e-06	-0.002321570185135446
3.35275e-06	-0.0023184049033333153
3.35300e-06	-0.002316696491854745
3.35325e-06	-0.002314988080376177
3.35350e-06	-0.0023132796688976067
3.35375e-06	-0.002311571257419036
3.35400e-06	-0.0023098628459404654
3.35425e-06	-0.0023081544344618976
3.35450e-06	-0.002307074331635405
3.35475e-06	-0.002307025623464753
3.35500e-06	-0.0023069769152941006
3.35525e-06	-0.002306928207123448
3.35550e-06	-0.0023068794989527957
3.35575e-06	-0.002306830790782143
3.35600e-06	-0.002306782082611491
3.35625e-06	-0.0023067333744408386
3.35650e-06	-0.0023074730845952587
3.35675e-06	-0.002308321767813419
3.35700e-06	-0.002309170451031581
3.35725e-06	-0.002310019134249743
3.35750e-06	-0.002310867817467903
3.35775e-06	-0.0023117165006860648
3.35800e-06	-0.0023125651839042264
3.35825e-06	-0.0023134483908603377
3.35850e-06	-0.002314388269961106
3.35875e-06	-0.002315328149061876
3.35900e-06	-0.0023162680281626456
3.35925e-06	-0.0023171495793192715
3.35950e-06	-0.002317904180486634
3.35975e-06	-0.0023185755663284735
3.36000e-06	-0.0023192497833321884
3.36025e-06	-0.0023202726800695688
3.36050e-06	-0.002322118779426264
3.36075e-06	-0.00232503415668656
3.36100e-06	-0.002329013380715405
3.36125e-06	-0.0023341537444333967
3.36150e-06	-0.0023401589123945173
3.36175e-06	-0.0023468101609458126
3.36200e-06	-0.002354521977524916
3.36225e-06	-0.0023633495244547364
3.36250e-06	-0.0023740085889314253
3.36275e-06	-0.002384667653408096
3.36300e-06	-0.0023970294149490323
3.36325e-06	-0.002412186224189612
3.36350e-06	-0.0024273430334301655
3.36375e-06	-0.002442499842670745
3.36400e-06	-0.0024576566519113247
3.36425e-06	-0.0024745513209832926
3.36450e-06	-0.0024942987588925385
3.36475e-06	-0.002514046196801784
3.36500e-06	-0.0025337936347110293
3.36525e-06	-0.0025535410726202413
3.36550e-06	-0.0025742391568592624
3.36575e-06	-0.0025964977663925724
3.36600e-06	-0.0026187563759258446
3.36625e-06	-0.00264137959938021
3.36650e-06	-0.0026646013516761014
3.36675e-06	-0.0026878231039719927
3.36700e-06	-0.002711087164410175
3.36725e-06	-0.0027344206754150203
3.36750e-06	-0.0027577541864198655
3.36775e-06	-0.0027806657324662386
3.36800e-06	-0.002802884605569698
3.36825e-06	-0.002825103478673158
3.36850e-06	-0.00284655657440041
3.36875e-06	-0.002866752614871805
3.36900e-06	-0.0028869486553431997
3.36925e-06	-0.002905906242470507
3.36950e-06	-0.002922830857178107
3.36975e-06	-0.002939755471885736
3.37000e-06	-0.0029556462695071476
3.37025e-06	-0.0029698400135953363
3.37050e-06	-0.0029840337576835492
3.37075e-06	-0.002998141598614441
3.37100e-06	-0.00301210842595735
3.37125e-06	-0.0030260752533002354
3.37150e-06	-0.0030400420806431447
3.37175e-06	-0.003054008907986054
3.37200e-06	-0.0030679757353289394
3.37225e-06	-0.0030819425626718486
3.37250e-06	-0.003095909390014758
3.37275e-06	-0.0031105335553744512
3.37300e-06	-0.0031252485762297173
3.37325e-06	-0.0031399635970849834
3.37350e-06	-0.00315467861794025
3.37375e-06	-0.003169393638795491
3.37400e-06	-0.0031841086596507574
3.37425e-06	-0.0031988236805060234
3.37450e-06	-0.003214075345581227
3.37475e-06	-0.0032302079343534415
3.37500e-06	-0.003246340523125656
3.37525e-06	-0.00326247311189787
3.37550e-06	-0.003278605700670057
3.37575e-06	-0.0032947382894422715
3.37600e-06	-0.003310870878214486
3.37625e-06	-0.003327003466986673
3.37650e-06	-0.003343136055758887
3.37675e-06	-0.0033583793257181242
3.37700e-06	-0.0033734996764190647
3.37725e-06	-0.0033886200271200304
3.37750e-06	-0.0034037403778209964
3.37775e-06	-0.0034188607285219625
3.37800e-06	-0.0034339810792229026
3.37825e-06	-0.0034491014299238686
3.37850e-06	-0.0034642217806248347
3.37875e-06	-0.0034783458264221754
3.37900e-06	-0.0034908343964864816
3.37925e-06	-0.003503322966550788
3.37950e-06	-0.0035148595152707444
3.37975e-06	-0.0035248332815529452
3.38000e-06	-0.003534807047835146
3.38025e-06	-0.0035432531082308233
3.38050e-06	-0.003549191376186994
3.38075e-06	-0.0035551296441431748
3.38100e-06	-0.003559258563259809
3.38125e-06	-0.003560417361373273
3.38150e-06	-0.0035615761594867392
3.38175e-06	-0.0035605421618401627
3.38200e-06	-0.003555908599200805
3.38225e-06	-0.0035512750365614553
3.38250e-06	-0.0035466414739220974
3.38275e-06	-0.003539913944698915
3.38300e-06	-0.0035297490826659483
3.38325e-06	-0.0035195842206329642
3.38350e-06	-0.00350941935859998
3.38375e-06	-0.003501746910444808
3.38400e-06	-0.00348323042403472
3.38425e-06	-0.006167204893545907
3.38450e-06	-0.012641225669383629
3.38475e-06	-0.014631671268780502
3.38500e-06	-0.013251282212958175
3.38525e-06	-0.010391736559040805
3.38550e-06	-0.00606796125547948
3.38575e-06	-0.0032892518006192887
3.38600e-06	-0.003282744565921819
3.38625e-06	-0.00507524601376693
3.38650e-06	-0.008059908145368437
3.38675e-06	-0.010033679660551182
3.38700e-06	-0.009542894788834876
3.38725e-06	-0.007564129902945554
3.38750e-06	-0.005074063695615134
3.38775e-06	-0.00312952308394093
3.38800e-06	-0.002912458802813776
3.38825e-06	-0.0037899847235324502
3.38850e-06	-0.0053037834113718665
3.38875e-06	-0.00630288328068231
3.38900e-06	-0.006038904088648232
3.38925e-06	-0.004916066065930293
3.38950e-06	-0.0035248033882096476
3.38975e-06	-0.002648252858542008
3.39000e-06	-0.0025659117511526754
3.39025e-06	-0.003180598527687501
3.39050e-06	-0.004113519743964776
3.39075e-06	-0.004632734693145272
3.39100e-06	-0.004456471619729823
3.39125e-06	-0.0037602918869707696
3.39150e-06	-0.002896688465503386
3.39175e-06	-0.0023561720108111962
3.39200e-06	-0.00231374211687379
3.39225e-06	-0.0027084408689615497
3.39250e-06	-0.0033029218775980835
3.39275e-06	-0.0036386577447883074
3.39300e-06	-0.0035391356251171097
3.39325e-06	-0.0031143168891755537
3.39350e-06	-0.0025849771617112334
3.39375e-06	-0.002258321583474976
3.39400e-06	-0.0022438997035791226
3.39425e-06	-0.0025034537739836394
3.39450e-06	-0.002888245092214886
