Time(s)	Current(A)
6.50000e-06	0.0005993910542506189
6.50025e-06	0.0006126490101207616
6.50050e-06	0.0006251677317534634
6.50075e-06	0.0006375235442076329
6.50100e-06	0.0006490366497165045
6.50125e-06	0.0006598257049334363
6.50150e-06	0.000669795270245317
6.50175e-06	0.0006788321601063599
6.50200e-06	0.0006866750744540488
6.50225e-06	0.000693039354579175
6.50250e-06	0.0006989346889201226
6.50275e-06	0.0007027834667712254
6.50300e-06	0.0007061597504932689
6.50325e-06	0.0007074739921652081
6.50350e-06	0.0007081818991059983
6.50375e-06	0.0007062436616077943
6.50400e-06	0.0007043054241095838
6.50425e-06	0.0007016298868481254
6.50450e-06	0.0006957366522189414
6.50475e-06	0.0006898434175897374
6.50500e-06	0.0006832860456554589
6.50525e-06	0.000673830269347727
6.50550e-06	0.0006643744930399632
6.50575e-06	0.0006543279516753115
6.50600e-06	0.0006417032144895751
6.50625e-06	0.0006290784773037958
6.50650e-06	0.0006158157410700866
6.50675e-06	0.0005997686721138583
6.50700e-06	0.0005837216031575756
6.50725e-06	0.0005676745342013472
6.50750e-06	0.0005516274652450645
6.50775e-06	0.0005355803962888362
6.50800e-06	0.0005179867549871041
6.50825e-06	0.0004996865944753969
6.50850e-06	0.00048138643396375175
6.50875e-06	0.0004630862734521066
6.50900e-06	0.0004447861129403994
6.50925e-06	0.0004265203348086106
6.50950e-06	0.00040840460703443256
6.50975e-06	0.0003902888792601932
6.51000e-06	0.00037242345267285697
6.51025e-06	0.0003556503816104163
6.51050e-06	0.0003388773105479188
6.51075e-06	0.0003224564253725526
6.51100e-06	0.000307572537302081
6.51125e-06	0.00029306369680435503
6.51150e-06	0.0002801916255661204
6.51175e-06	0.0002674331809388808
6.51200e-06	0.0002551706215206247
6.51225e-06	0.00024290806210236864
6.51250e-06	0.00023039259087753454
6.51275e-06	0.00021677337095445305
6.51300e-06	0.00020315415103137156
6.51325e-06	0.0001894512077123327
6.51350e-06	0.00017538288173083493
6.51375e-06	0.00016124294863089272
6.51400e-06	0.00014664153135408978
6.51425e-06	0.0001312148314154199
6.51450e-06	0.00011487103305946446
6.51475e-06	9.773243965959538e-05
6.51500e-06	7.993440499297935e-05
6.51525e-06	6.161224867566827e-05
6.51550e-06	4.289172378272713e-05
6.51575e-06	2.3818969776542695e-05
6.51600e-06	4.254572656301048e-06
6.51625e-06	-1.5993715608928516e-05
6.51650e-06	-3.692943547490725e-05
6.51675e-06	-5.842198396404525e-05
6.51700e-06	-8.034812178280881e-05
6.51725e-06	-0.00010259028401393188
6.51750e-06	-0.00012489512383709087
6.51775e-06	-0.00014747349897461834
6.51800e-06	-0.0001700518741121458
6.51825e-06	-0.00019263024924974978
6.51850e-06	-0.0002151777632139776
6.51875e-06	-0.00023759059394487777
6.51900e-06	-0.00026000342467585386
6.51925e-06	-0.00028241625540675403
6.51950e-06	-0.00030453122410817297
6.51975e-06	-0.00032534627394962266
6.52000e-06	-0.00034616132379100176
6.52025e-06	-0.0003665896257450529
6.52050e-06	-0.00038533009634381517
6.52075e-06	-0.0004040705669425774
6.52100e-06	-0.0004223313183164563
6.52125e-06	-0.00043849849613517185
6.52150e-06	-0.00045415736722271546
6.52175e-06	-0.0004675979041787534
6.52200e-06	-0.0004810384411347458
6.52225e-06	-0.0004942042038137801
6.52250e-06	-0.0005061708063801622
6.52275e-06	-0.0005181374089465038
6.52300e-06	-0.0005297680942985448
6.52325e-06	-0.0005399327817085763
6.52350e-06	-0.0005500974691185732
6.52375e-06	-0.0005597763004290175
6.52400e-06	-0.0005673347758549547
6.52425e-06	-0.0005748932512808663
6.52450e-06	-0.0005824517267068035
6.52475e-06	-0.000590010202132715
6.52500e-06	-0.0005975686775586266
6.52525e-06	-0.0006051271529845639
6.52550e-06	-0.0006126856284104755
6.52575e-06	-0.0006202441038363871
6.52600e-06	-0.0006278025792623243
6.52625e-06	-0.0006353610546882359
6.52650e-06	-0.0006412249456274686
6.52675e-06	-0.0006463147011079732
6.52700e-06	-0.0006514044565884605
6.52725e-06	-0.0006564942120689478
6.52750e-06	-0.0006615839675494523
6.52775e-06	-0.0006666737230299397
6.52800e-06	-0.0006717634785104271
6.52825e-06	-0.0006768532339909316
6.52850e-06	-0.0006819429894714189
6.52875e-06	-0.0006870327449519235
6.52900e-06	-0.0006917182728831167
6.52925e-06	-0.0006946396853417002
6.52950e-06	-0.0006975610978002937
6.52975e-06	-0.0007004825102588772
6.53000e-06	-0.0007034039227174608
6.53025e-06	-0.0007063253351760543
6.53050e-06	-0.0007092467476346378
6.53075e-06	-0.0007121681600932213
6.53100e-06	-0.0007150895725518148
6.53125e-06	-0.0007180109850103984
6.53150e-06	-0.0007209323974689819
6.53175e-06	-0.0007238538099275753
6.53200e-06	-0.0007267752223861589
6.53225e-06	-0.0007296966348447425
6.53250e-06	-0.0007326180473033359
6.53275e-06	-0.0007355394597619194
6.53300e-06	-0.0007374039789779788
6.53325e-06	-0.000738785678634746
6.53350e-06	-0.000740167378291513
6.53375e-06	-0.0007415490779482847
6.53400e-06	-0.0007429307776050519
6.53425e-06	-0.0007443124772618189
6.53450e-06	-0.0007456941769185908
6.53475e-06	-0.0007470758765753578
6.53500e-06	-0.0007484575762321248
6.53525e-06	-0.0007498392758888967
6.53550e-06	-0.0007512209755456637
6.53575e-06	-0.0007526026752024308
6.53600e-06	-0.0007539843748592026
6.53625e-06	-0.0007553660745159696
6.53650e-06	-0.0007567477741727367
6.53675e-06	-0.0007580483919119223
6.53700e-06	-0.0007589951548344852
6.53725e-06	-0.0007599419177570513
6.53750e-06	-0.0007608886806796142
6.53775e-06	-0.000761835443602177
6.53800e-06	-0.0007627822065247431
6.53825e-06	-0.000763728969447306
6.53850e-06	-0.0007646757323698689
6.53875e-06	-0.000765622495292435
6.53900e-06	-0.0007665692582149979
6.53925e-06	-0.0007673092054493546
6.53950e-06	-0.0007679546732647874
6.53975e-06	-0.0007686001410802181
6.54000e-06	-0.0007692456088956486
6.54025e-06	-0.0007698910767110815
6.54050e-06	-0.0007705365445265121
6.54075e-06	-0.0007711820123419428
6.54100e-06	-0.0007718274801573757
6.54125e-06	-0.0007724729479728063
6.54150e-06	-0.0007728184784365885
6.54175e-06	-0.0007718550329941701
6.54200e-06	-0.0007708915875517516
6.54225e-06	-0.0007699281421093299
6.54250e-06	-0.0007689646966669114
6.54275e-06	-0.000768001251224493
6.54300e-06	-0.0007670378057820712
6.54325e-06	-0.0007660743603396527
6.54350e-06	-0.0007625195270254154
6.54375e-06	-0.0007577808723945208
6.54400e-06	-0.0007530422177636423
6.54425e-06	-0.0007483035631327638
6.54450e-06	-0.0007435649085018693
6.54475e-06	-0.0007388262538709908
6.54500e-06	-0.0007340875992401123
6.54525e-06	-0.0007286544805294783
6.54550e-06	-0.0007201906064194576
6.54575e-06	-0.0007117267323094083
6.54600e-06	-0.0007032628581993876
6.54625e-06	-0.0006947989840893669
6.54650e-06	-0.0006863351099793175
6.54675e-06	-0.0006778712358692968
6.54700e-06	-0.0006694073617592761
6.54725e-06	-0.0006605627106385059
6.54750e-06	-0.0006500562860512859
6.54775e-06	-0.000639549861464066
6.54800e-06	-0.0006290434368768105
6.54825e-06	-0.0006185370122895905
6.54850e-06	-0.0006080305877023706
6.54875e-06	-0.0005975241631151149
6.54900e-06	-0.000587017738527895
6.54925e-06	-0.0005766204336836258
6.54950e-06	-0.0005666993453345181
6.54975e-06	-0.000556778256985444
6.55000e-06	-0.0005468571686363362
6.55025e-06	-0.0005369360802872621
6.55050e-06	-0.000527014991938188
6.55075e-06	-0.0005175718513547634
6.55100e-06	-0.0005102145533850918
6.55125e-06	-0.0005028572554154202
6.55150e-06	-0.0004954999574457237
6.55175e-06	-0.0004881426594760521
6.55200e-06	-0.0004807853615063805
6.55225e-06	-0.0004740436831043152
6.55250e-06	-0.0004699886696898429
6.55275e-06	-0.00046593365627537055
6.55300e-06	-0.00046187864286088446
6.55325e-06	-0.0004578236294464121
6.55350e-06	-0.00045376861603193977
6.55375e-06	-0.0004497136026174537
6.55400e-06	-0.00044565858920298136
6.55425e-06	-0.00044160357578849527
6.55450e-06	-0.0004375485623740229
6.55475e-06	-0.00043406068894902056
6.55500e-06	-0.0004330479076633363
6.55525e-06	-0.00043203512637765546
6.55550e-06	-0.0004310223450919746
6.55575e-06	-0.00043000956380629036
6.55600e-06	-0.0004289967825206095
6.55625e-06	-0.00042798400123492873
6.55650e-06	-0.0004269712199492445
6.55675e-06	-0.00042595843866356363
6.55700e-06	-0.0004249456573778828
6.55725e-06	-0.0004242244318974996
6.55750e-06	-0.00042477560387666803
6.55775e-06	-0.00042532677585583646
6.55800e-06	-0.0004258779478350068
6.55825e-06	-0.0004264291198141752
6.55850e-06	-0.0004269802917933455
6.55875e-06	-0.0004275314637725139
6.55900e-06	-0.00042808263575168235
6.55925e-06	-0.00042869984071971064
6.55950e-06	-0.00042960522450543156
6.55975e-06	-0.00043051060829115247
6.56000e-06	-0.0004314159920768764
6.56025e-06	-0.00043232137586259734
6.56050e-06	-0.00043322675964831825
6.56075e-06	-0.00043413214343404226
6.56100e-06	-0.00043503752721976317
6.56125e-06	-0.0004359263009716816
6.56150e-06	-0.0004367425858057812
6.56175e-06	-0.00043755887063987806
6.56200e-06	-0.00043869238510069885
6.56225e-06	-0.000441210341797779
6.56250e-06	-0.0004437282984948506
6.56275e-06	-0.00044666596723971324
6.56300e-06	-0.00045143532835198
6.56325e-06	-0.0004562046894642468
6.56350e-06	-0.0004613712427516114
6.56375e-06	-0.0004682712079801243
6.56400e-06	-0.0004751711732086372
6.56425e-06	-0.0004826024388776803
6.56450e-06	-0.000492352387002392
6.56475e-06	-0.0005021023351271037
6.56500e-06	-0.0005122944319797721
6.56525e-06	-0.0005244161385598944
6.56550e-06	-0.0005365378451400167
6.56575e-06	-0.0005490540111995185
6.56600e-06	-0.0005632916632666136
6.56625e-06	-0.0005775293153337086
6.56650e-06	-0.0005922510589674035
6.56675e-06	-0.0006090854577706286
6.56700e-06	-0.0006259198565739107
6.56725e-06	-0.0006427542553771358
6.56750e-06	-0.0006595886541803609
6.56775e-06	-0.0006764230529836431
6.56800e-06	-0.0006932574517868683
6.56825e-06	-0.0007107848246221533
6.56850e-06	-0.0007286287681413064
6.56875e-06	-0.000746472711660399
6.56900e-06	-0.0007643166551794915
6.56925e-06	-0.0007821605986986445
6.56950e-06	-0.0008000045422177372
6.56975e-06	-0.0008175080790900572
6.57000e-06	-0.0008335260254012867
6.57025e-06	-0.0008495439717124619
6.57050e-06	-0.0008655619180236372
6.57075e-06	-0.0008815798643348667
6.57100e-06	-0.0008951296458866746
6.57125e-06	-0.0009075518980226841
6.57150e-06	-0.0009199741501586516
6.57175e-06	-0.0009323964022946191
6.57200e-06	-0.0009438939922124779
6.57225e-06	-0.000951356204218514
6.57250e-06	-0.0009588184162245502
6.57275e-06	-0.0009662806282306117
6.57300e-06	-0.0009737428402366478
6.57325e-06	-0.0009812050522426839
6.57350e-06	-0.0009886672642487454
6.57375e-06	-0.0009961294762547816
6.57400e-06	-0.0010035916882608178
6.57425e-06	-0.001011053900266879
6.57450e-06	-0.0010185161122729153
6.57475e-06	-0.0010259783242789514
6.57500e-06	-0.0010302649237624135
6.57525e-06	-0.0010331008111251886
6.57550e-06	-0.0010359366984879735
6.57575e-06	-0.0010387725858507486
6.57600e-06	-0.0010416084732135238
6.57625e-06	-0.0010444443605763087
6.57650e-06	-0.0010472802479390838
6.57675e-06	-0.001050116135301859
6.57700e-06	-0.0010529520226646438
6.57725e-06	-0.001055787910027419
6.57750e-06	-0.001058623797390194
6.57775e-06	-0.0010610844822128407
6.57800e-06	-0.00106190772147652
6.57825e-06	-0.0010627309607401992
6.57850e-06	-0.0010635542000038815
6.57875e-06	-0.0010643774392675607
6.57900e-06	-0.00106520067853124
6.57925e-06	-0.001066023917794922
6.57950e-06	-0.0010667307670065127
6.57975e-06	-0.0010669296708992347
6.58000e-06	-0.0010671285747919563
6.58025e-06	-0.0010673274786846777
6.58050e-06	-0.0010675263825773997
6.58075e-06	-0.0010677252864701213
6.58100e-06	-0.0010679241903628427
6.58125e-06	-0.00106807101052626
6.58150e-06	-0.0010679905287337703
6.58175e-06	-0.0010679100469412808
6.58200e-06	-0.0010672383301499541
6.58225e-06	-0.0010639863666399919
6.58250e-06	-0.0010607344031300296
6.58275e-06	-0.0010574824396200565
6.58300e-06	-0.0010542304761100942
6.58325e-06	-0.001050978512600132
6.58350e-06	-0.0010477265490901587
6.58375e-06	-0.0010407603037785006
6.58400e-06	-0.0010320972665597424
6.58425e-06	-0.0010234342293410136
6.58450e-06	-0.0010147711921222847
6.58475e-06	-0.0010061081549035266
6.58500e-06	-0.0009974451176847977
6.58525e-06	-0.000987761647154419
6.58550e-06	-0.0009736248379195565
6.58575e-06	-0.0009594880286847419
6.58600e-06	-0.0009453512194499272
6.58625e-06	-0.0009312144102150647
6.58650e-06	-0.00091707760098025
6.58675e-06	-0.0009029407917454355
6.58700e-06	-0.0008888039825105729
6.58725e-06	-0.0008723600628348554
6.58750e-06	-0.000854862188038461
6.58775e-06	-0.0008373643132420071
6.58800e-06	-0.0008198664384456126
6.58825e-06	-0.000802368563649159
6.58850e-06	-0.0007848706888527644
6.58875e-06	-0.0007673728140563699
6.58900e-06	-0.0007498579918439745
6.58925e-06	-0.0007322692083227693
6.58950e-06	-0.0007146804248015641
6.58975e-06	-0.0006973055258151364
6.59000e-06	-0.0006808640540956429
6.59025e-06	-0.0006644225823761494
6.59050e-06	-0.0006483397611512927
6.59075e-06	-0.0006338221496377575
6.59100e-06	-0.0006193045381242223
6.59125e-06	-0.0006053357083468662
6.59150e-06	-0.0005937618522712615
6.59175e-06	-0.0005821879961956567
6.59200e-06	-0.0005713220729002432
6.59225e-06	-0.000563545684622633
6.59250e-06	-0.0005557692963449966
6.59275e-06	-0.0005486254068698453
6.59300e-06	-0.000544241846134113
6.59325e-06	-0.000540379186765371
6.59350e-06	-0.0005387898265841287
6.59375e-06	-0.000537732077911739
6.59400e-06	-0.0005389943692463127
6.59425e-06	-0.0005408990520675763
6.59450e-06	-0.0005456072369282231
6.59475e-06	-0.0005503154217888857
6.59500e-06	-0.0005557302806897391
6.59525e-06	-0.0005642291812597145
6.59550e-06	-0.0005727280818297186
6.59575e-06	-0.0005818553541262622
6.59600e-06	-0.0005937249439244147
6.59625e-06	-0.0006055945337226073
6.59650e-06	-0.0006181653394035963
6.59675e-06	-0.000633796366457691
6.59700e-06	-0.0006494273935117326
6.59725e-06	-0.0006650584205657742
6.59750e-06	-0.0006806894476198687
6.59775e-06	-0.0006963204746739104
6.59800e-06	-0.0007123936124770189
6.59825e-06	-0.0007303961942597189
6.59850e-06	-0.0007483987760423579
6.59875e-06	-0.000766401357824997
6.59900e-06	-0.000784403939607697
6.59925e-06	-0.000802406521390336
6.59950e-06	-0.0008202233565426704
6.59975e-06	-0.0008372295628689147
6.60000e-06	-0.0008542357691951013
6.60025e-06	-0.000871241975521288
6.60050e-06	-0.0008882481818475323
6.60075e-06	-0.0009044840370772806
6.60100e-06	-0.0009173579534983661
6.60125e-06	-0.0009302318699194954
6.60150e-06	-0.000943105786340581
6.60175e-06	-0.0009559797027617102
6.60200e-06	-0.0009676681388647816
6.60225e-06	-0.0009741829440010302
6.60250e-06	-0.0009797450836474461
6.60275e-06	-0.000981149634505288
6.60300e-06	-0.0009816355275577308
6.60325e-06	-0.0009781122469464572
6.60350e-06	-0.0009736698419278546
6.60375e-06	-0.0009652162269180699
6.60400e-06	-0.0009557156711271881
6.60425e-06	-0.0009416460936809807
6.60450e-06	-0.0009265516902146882
6.60475e-06	-0.0009069847775449335
6.60500e-06	-0.0008865065424860983
6.60525e-06	-0.0008620511467260836
6.60550e-06	-0.0008367763003255336
6.60575e-06	-0.0008079252366363166
6.60600e-06	-0.0007782668376797627
6.60625e-06	-0.0007450850949147533
6.60650e-06	-0.0007112020440314646
6.60675e-06	-0.0006742583692453232
6.60700e-06	-0.0006367766373329868
6.60725e-06	-0.0005969467356805761
6.60750e-06	-0.0005568120073311606
6.60775e-06	-0.0005151798674271483
6.60800e-06	-0.00047266997587126135
6.60825e-06	-0.0004293987695229335
6.60850e-06	-0.00038556831059488654
6.60875e-06	-0.00034143649841500325
6.60900e-06	-0.00029726445254999237
6.60925e-06	-0.00025331328985420956
6.60950e-06	-0.00020984180403523962
6.60975e-06	-0.00016709018367818163
6.61000e-06	-0.00012525824551565072
6.61025e-06	-8.454233479471367e-05
6.61050e-06	-4.519243753468041e-05
6.61075e-06	-7.493480298090662e-06
6.61100e-06	2.8267606304218425e-05
6.61125e-06	6.180393121623425e-05
6.61150e-06	9.284427838677485e-05
6.61175e-06	0.00012125151404843649
6.61200e-06	0.00014722095164163042
6.61225e-06	0.00017109865538875922
6.61250e-06	0.00019298011422616389
6.61275e-06	0.00021276070313053618
6.61300e-06	0.00023032304364091762
6.61325e-06	0.0002455497535956115
6.61350e-06	0.0002583333012673477
6.61375e-06	0.00026865019087614437
6.61400e-06	0.0002766851258543594
6.61425e-06	0.00028271721681096397
6.61450e-06	0.00028686862517456
6.61475e-06	0.00028913614378541186
6.61500e-06	0.00028950855484178987
6.61525e-06	0.0002879747115766186
6.61550e-06	0.00028452960358071796
6.61575e-06	0.0002792208155420304
6.61600e-06	0.0002722263782801996
6.61625e-06	0.00026378347108675627
6.61650e-06	0.00025403093627079156
6.61675e-06	0.00024292194816421367
6.61700e-06	0.00023036564621047698
6.61725e-06	0.00021740345890746728
6.61750e-06	0.00020266992122508525
6.61775e-06	0.00018762310511152356
6.61800e-06	0.00017120909043074681
6.61825e-06	0.00015461336821024978
6.61850e-06	0.00013722464441960419
6.61875e-06	0.00011972286913154946
6.61900e-06	0.00010172771852695373
6.61925e-06	8.373256792235799e-05
6.61950e-06	6.572161886377197e-05
6.61975e-06	4.7677659242136986e-05
6.62000e-06	2.9864033687477894e-05
6.62025e-06	1.2474995566636757e-05
6.62050e-06	-4.333807945403771e-06
6.62075e-06	-2.04375625783075e-05
6.62100e-06	-3.571342980197004e-05
6.62125e-06	-5.0038580420218206e-05
6.62150e-06	-6.330409481509848e-05
6.62175e-06	-7.55177647700212e-05
6.62200e-06	-8.696463959460185e-05
6.62225e-06	-9.802312440696206e-05
6.62250e-06	-0.00010881217695532171
6.62275e-06	-0.00011921491707896886
6.62300e-06	-0.00012908606325501268
6.62325e-06	-0.00013874766990036122
6.62350e-06	-0.0001474948115922173
6.62375e-06	-0.00015606928253963603
6.62400e-06	-0.00016389018997656815
6.62425e-06	-0.00017171109741350026
6.62450e-06	-0.00017943755322710707
6.62475e-06	-0.00018675180663153316
6.62500e-06	-0.00019406606003595923
6.62525e-06	-0.00020114835583583048
6.62550e-06	-0.00020721835052285134
6.62575e-06	-0.0002132883452098722
6.62600e-06	-0.00021935833989691363
6.62625e-06	-0.00022542833458393452
6.62650e-06	-0.00023149832927095538
6.62675e-06	-0.0002375683239579968
6.62700e-06	-0.0002436383186450177
6.62725e-06	-0.0002492121565123329
6.62750e-06	-0.0002541471432367127
6.62775e-06	-0.0002590821299610926
6.62800e-06	-0.00026401711668548914
6.62825e-06	-0.00026895210340986903
6.62850e-06	-0.00027388709013424886
6.62875e-06	-0.00027882207685864545
6.62900e-06	-0.0002837570635830253
6.62925e-06	-0.0002873896011035265
6.62950e-06	-0.0031530357300078972
6.62975e-06	-0.014150364880076892
6.63000e-06	-0.014957360899119919
6.63025e-06	-0.01271439296556328
6.63050e-06	-0.008826691900267147
6.63075e-06	-0.0005238723202095067
6.63100e-06	0.0018920614467889865
6.63125e-06	0.0011824619341969157
6.63150e-06	-0.0008066137637427839
6.63175e-06	-0.007051327810981271
6.63200e-06	-0.00913992592827862
6.63225e-06	-0.007224403450892018
6.63250e-06	-0.004760478089159057
6.63275e-06	-0.001042714707521979
6.63300e-06	0.0017557821992769899
6.63325e-06	0.00207449438141391
6.63350e-06	0.0004933069944823918
6.63375e-06	-0.002209560333536867
6.63400e-06	-0.004263529056503626
6.63425e-06	-0.004165546437587049
6.63450e-06	-0.0025788967573029263
6.63475e-06	-0.0003257626488001905
6.63500e-06	0.0013839321673929155
6.63525e-06	0.0015478228013164398
6.63550e-06	0.0005245306904437033
6.63575e-06	-0.0011988160340845235
6.63600e-06	-0.002513474030523449
6.63625e-06	-0.002478306491849766
6.63650e-06	-0.0015091358197100993
6.63675e-06	-0.00012123082582431535
6.63700e-06	0.0009273574226210221
6.63725e-06	0.0010086886793422994
6.63750e-06	0.0003473891763442551
6.63775e-06	-0.0007514193083620554
6.63800e-06	-0.0015932614276263327
6.63825e-06	-0.0015886922527512974
6.63850e-06	-0.000998265067606077
6.63875e-06	-0.00014478746060698632
6.63900e-06	0.0004969014184760298
6.63925e-06	0.0005335115842530951
6.63950e-06	0.00010581851784890312
6.63975e-06	-0.0005949887802668153
6.64000e-06	-0.0011338543310179601
6.64025e-06	-0.0011415453370588844
6.64050e-06	-0.000781272501131097
6.64075e-06	-0.0002552223759590503
6.64100e-06	0.00013921121201521716
6.64125e-06	0.00015574407463198734
6.64150e-06	-0.00011736098680208118
6.64175e-06	-0.0005604385361901018
6.64200e-06	-0.000901465050741526
6.64225e-06	-0.0009097461051662877
6.64250e-06	-0.0006877709666084019
6.64275e-06	-0.0003622104094356232
6.64300e-06	-0.00011933981738672362
