Time(s)	Current(A)
2.80000e-06	-0.004686621169905138
2.80025e-06	-0.00468106133470755
2.80050e-06	-0.004675501499509953
2.80075e-06	-0.004670441416432256
2.80100e-06	-0.004665787073657953
2.80125e-06	-0.004661132730883658
2.80150e-06	-0.004656478388109356
2.80175e-06	-0.004651824045335053
2.80200e-06	-0.004647169702560758
2.80225e-06	-0.004642515359786456
2.80250e-06	-0.004637861017012153
2.80275e-06	-0.004634437048977698
2.80300e-06	-0.00463201200140872
2.80325e-06	-0.004629586953839743
2.80350e-06	-0.004627161906270765
2.80375e-06	-0.004624736858701792
2.80400e-06	-0.004622311811132815
2.80425e-06	-0.004619886763563837
2.80450e-06	-0.004617461715994864
2.80475e-06	-0.004617896316739372
2.80500e-06	-0.00462065261763909
2.80525e-06	-0.004623408918538808
2.80550e-06	-0.004626165219438522
2.80575e-06	-0.00462892152033824
2.80600e-06	-0.004631677821237958
2.80625e-06	-0.004634434122137671
2.80650e-06	-0.004637190423037389
2.80675e-06	-0.004639946723937107
2.80700e-06	-0.004645610597265676
2.80725e-06	-0.0046536350795291365
2.80750e-06	-0.004661659561792597
2.80775e-06	-0.004669684044056058
2.80800e-06	-0.0046777085263195045
2.80825e-06	-0.004685733008582965
2.80850e-06	-0.004693757490846426
2.80875e-06	-0.0047017819731098726
2.80900e-06	-0.004709806455373333
2.80925e-06	-0.004718964853761236
2.80950e-06	-0.0047290438594943685
2.80975e-06	-0.004739112031948285
2.81000e-06	-0.004749171409045853
2.81025e-06	-0.00475923078614342
2.81050e-06	-0.00476929016324097
2.81075e-06	-0.004779349540338538
2.81100e-06	-0.004789408917436106
2.81125e-06	-0.004799468294533656
2.81150e-06	-0.004809527671631223
2.81175e-06	-0.00481958704872879
2.81200e-06	-0.004829646425826358
2.81225e-06	-0.0048397058029239085
2.81250e-06	-0.004849438576349271
2.81275e-06	-0.00485320646453245
2.81300e-06	-0.004856974352715624
2.81325e-06	-0.004860742240898804
2.81350e-06	-0.0048645101290819845
2.81375e-06	-0.004868278017265164
2.81400e-06	-0.004872045905448338
2.81425e-06	-0.004875813793631518
2.81450e-06	-0.004879581681814698
2.81475e-06	-0.004883349569997871
2.81500e-06	-0.004887117458181051
2.81525e-06	-0.004890885346364231
2.81550e-06	-0.00488921443738635
2.81575e-06	-0.004883127860875471
2.81600e-06	-0.004877041284364592
2.81625e-06	-0.004870954707853713
2.81650e-06	-0.004864868131342845
2.81675e-06	-0.004858781554831966
2.81700e-06	-0.004852694978321088
2.81725e-06	-0.004846608401810219
2.81750e-06	-0.004840179080595798
2.81775e-06	-0.004827490084435065
2.81800e-06	-0.004814801088274333
2.81825e-06	-0.004802112092113621
2.81850e-06	-0.004789423095952888
2.81875e-06	-0.004776734099792156
2.81900e-06	-0.004764045103631444
2.81925e-06	-0.004751356107470711
2.81950e-06	-0.004738667111309979
2.81975e-06	-0.004724626379697918
2.82000e-06	-0.004709488196908831
2.82025e-06	-0.0046943500141197435
2.82050e-06	-0.004679211831330656
2.82075e-06	-0.004664073648541595
2.82100e-06	-0.004648935465752508
2.82125e-06	-0.004634435980849177
2.82150e-06	-0.004620455043969288
2.82175e-06	-0.004606474107089375
2.82200e-06	-0.0045924931702094616
2.82225e-06	-0.004578512233329549
2.82250e-06	-0.004564531296449659
2.82275e-06	-0.004552080176147419
2.82300e-06	-0.004540871088080206
2.82325e-06	-0.004529662000013011
2.82350e-06	-0.004518406736885717
2.82375e-06	-0.004507113985007217
2.82400e-06	-0.0044958212331287365
2.82425e-06	-0.0044830130997330995
2.82450e-06	-0.004468974653684204
2.82475e-06	-0.004454936207635309
2.82500e-06	-0.004438983237211468
2.82525e-06	-0.0044214758967910895
2.82550e-06	-0.00440396855637071
2.82575e-06	-0.004386461215950361
2.82600e-06	-0.004368953875529983
2.82625e-06	-0.004351137221056751
2.82650e-06	-0.004327671448135366
2.82675e-06	-0.00430420567521402
2.82700e-06	-0.004280739902292635
2.82725e-06	-0.00425727412937125
2.82750e-06	-0.004233808356449904
2.82775e-06	-0.004207688544811388
2.82800e-06	-0.004179413963975092
2.82825e-06	-0.0041511393831388434
2.82850e-06	-0.004122864802302548
2.82875e-06	-0.004094590221466252
2.82900e-06	-0.004064981224227701
2.82925e-06	-0.004034288836855498
2.82950e-06	-0.004003596449483242
2.82975e-06	-0.0039729040621109876
2.83000e-06	-0.003942211674738784
2.83025e-06	-0.003911256989038241
2.83050e-06	-0.0038800893477561596
2.83075e-06	-0.0038492775928253378
2.83100e-06	-0.003818754776010907
2.83125e-06	-0.00378873947793421
2.83150e-06	-0.0037595417781297862
2.83175e-06	-0.0037310998376664456
2.83200e-06	-0.0037035012097196844
2.83225e-06	-0.0036769081568549427
2.83250e-06	-0.00365191895988051
2.83275e-06	-0.0036278350745162754
2.83300e-06	-0.0036055667299766396
2.83325e-06	-0.003584772392361269
2.83350e-06	-0.0035656880954100714
2.83375e-06	-0.0035479921515851245
2.83400e-06	-0.0035319858166027417
2.83425e-06	-0.0035173512464959024
2.83450e-06	-0.0035027166763890384
2.83475e-06	-0.0034904202005811708
2.83500e-06	-0.003480021984035589
2.83525e-06	-0.003469623767490025
2.83550e-06	-0.003462534319866918
2.83575e-06	-0.0034581312058346294
2.83600e-06	-0.0034537280918023484
2.83625e-06	-0.0034493249777700595
2.83650e-06	-0.003444921863737771
2.83675e-06	-0.00344051874970549
2.83700e-06	-0.003436455736834596
2.83725e-06	-0.00343860411891374
2.83750e-06	-0.0034407525009928844
2.83775e-06	-0.003442900883072025
2.83800e-06	-0.003445049265151169
2.83825e-06	-0.003447197647230313
2.83850e-06	-0.003449346029309454
2.83875e-06	-0.0034539053733948825
2.83900e-06	-0.0034604221368031516
2.83925e-06	-0.0034669389002114207
2.83950e-06	-0.0034734556636196786
2.83975e-06	-0.003479972427027948
2.84000e-06	-0.0034864891904362173
2.84025e-06	-0.003493005953844475
2.84050e-06	-0.003500273829931556
2.84075e-06	-0.003508151521713503
2.84100e-06	-0.003516029213495436
2.84125e-06	-0.003523906905277383
2.84150e-06	-0.003531784597059329
2.84175e-06	-0.003539662288841276
2.84200e-06	-0.003547539980623209
2.84225e-06	-0.00355480427717958
2.84250e-06	-0.003561570568514805
2.84275e-06	-0.0035683368598500185
2.84300e-06	-0.003574394291195258
2.84325e-06	-0.0035798762110898735
2.84350e-06	-0.0035853581309844896
2.84375e-06	-0.003591345020993418
2.84400e-06	-0.003597741887707379
2.84425e-06	-0.0036041387544213403
2.84450e-06	-0.003611835702456062
2.84475e-06	-0.003620588164552
2.84500e-06	-0.003629340626647938
2.84525e-06	-0.0036380930887438614
2.84550e-06	-0.0036468455508397992
2.84575e-06	-0.0036555980129357375
2.84600e-06	-0.003664558118970328
2.84625e-06	-0.003677310504063924
2.84650e-06	-0.003690062889157541
2.84675e-06	-0.003702815274251158
2.84700e-06	-0.003715567659344754
2.84725e-06	-0.003728320044438371
2.84750e-06	-0.0037410724295319883
2.84775e-06	-0.0037558464756595822
2.84800e-06	-0.0037722618742274954
2.84825e-06	-0.003788677272795408
2.84850e-06	-0.003805092671363321
2.84875e-06	-0.0038215080699312066
2.84900e-06	-0.0038379234684991197
2.84925e-06	-0.003854338867067033
2.84950e-06	-0.0038708070796820604
2.84975e-06	-0.0038882398550304873
2.85000e-06	-0.0039056726303789142
2.85025e-06	-0.003923105405727341
2.85050e-06	-0.003940538181075738
2.85075e-06	-0.0039579709564241655
2.85100e-06	-0.003975403731772592
2.85125e-06	-0.00399283650712099
2.85150e-06	-0.004009370813461892
2.85175e-06	-0.004025175667993976
2.85200e-06	-0.0040409805225260316
2.85225e-06	-0.00405361107726501
2.85250e-06	-0.004063664471627341
2.85275e-06	-0.004073717865989673
2.85300e-06	-0.004083771260351988
2.85325e-06	-0.00409382465471432
2.85350e-06	-0.004103878049076652
2.85375e-06	-0.0041139314434389665
2.85400e-06	-0.004123984837801299
2.85425e-06	-0.00413403823216363
2.85450e-06	-0.004144091626525962
2.85475e-06	-0.004154145020888277
2.85500e-06	-0.004164198415250609
2.85525e-06	-0.004169975476475143
2.85550e-06	-0.004172280655067741
2.85575e-06	-0.004174585833660344
2.85600e-06	-0.004176891012252946
2.85625e-06	-0.004179196190845546
2.85650e-06	-0.004181501369438148
2.85675e-06	-0.004183806548030751
2.85700e-06	-0.004186111726623354
2.85725e-06	-0.004188416905215953
2.85750e-06	-0.004190722083808556
2.85775e-06	-0.004193027262401158
2.85800e-06	-0.004195332440993757
2.85825e-06	-0.004195361660298786
2.85850e-06	-0.004193543066707333
2.85875e-06	-0.0041917244731158815
2.85900e-06	-0.004189905879524433
2.85925e-06	-0.0041880872859329805
2.85950e-06	-0.004186268692341529
2.85975e-06	-0.00418445009875008
2.86000e-06	-0.0041826315051586285
2.86025e-06	-0.004180812911567176
2.86050e-06	-0.0041789943179757275
2.86075e-06	-0.004176631698221951
2.86100e-06	-0.004173827392817526
2.86125e-06	-0.004171023087413101
2.86150e-06	-0.004168218782008681
2.86175e-06	-0.004165414476604257
2.86200e-06	-0.004162610171199832
2.86225e-06	-0.004159805865795412
2.86250e-06	-0.0041570015603909875
2.86275e-06	-0.004154197254986562
2.86300e-06	-0.004151392949582138
2.86325e-06	-0.004148148933101637
2.86350e-06	-0.004144547922626743
2.86375e-06	-0.004140946912151849
2.86400e-06	-0.004137345901676962
2.86425e-06	-0.004133744891202068
2.86450e-06	-0.0041301438807271745
2.86475e-06	-0.0041265428702522864
2.86500e-06	-0.004122941859777393
2.86525e-06	-0.004119340849302499
2.86550e-06	-0.004113813850514869
2.86575e-06	-0.004106723174352903
2.86600e-06	-0.004099632498190925
2.86625e-06	-0.0040925418220289465
2.86650e-06	-0.004085451145866981
2.86675e-06	-0.004078360469705003
2.86700e-06	-0.004071269793543025
2.86725e-06	-0.004064179117381047
2.86750e-06	-0.004057088441219081
2.86775e-06	-0.00404835295260766
2.86800e-06	-0.004038282068555217
2.86825e-06	-0.004028211184502789
2.86850e-06	-0.004018140300450346
2.86875e-06	-0.004008069416397902
2.86900e-06	-0.003997998532345475
2.86925e-06	-0.003987927648293031
2.86950e-06	-0.003977856764240588
2.86975e-06	-0.003967759174267592
2.87000e-06	-0.003957173844060051
2.87025e-06	-0.003946588513852492
2.87050e-06	-0.003936003183644932
2.87075e-06	-0.003925417853437391
2.87100e-06	-0.003914832523229832
2.87125e-06	-0.0039042471930222727
2.87150e-06	-0.003893661862814713
2.87175e-06	-0.003883076532607172
2.87200e-06	-0.003874087380612999
2.87225e-06	-0.0038663941387452436
2.87250e-06	-0.0038587008968775007
2.87275e-06	-0.0038510076550097453
2.87300e-06	-0.0038433144131419894
2.87325e-06	-0.003835621171274247
2.87350e-06	-0.003827927929406491
2.87375e-06	-0.0038202346875387356
2.87400e-06	-0.0038125414456709797
2.87425e-06	-0.0038076463924543824
2.87450e-06	-0.003805023141332477
2.87475e-06	-0.003802399890210571
2.87500e-06	-0.00379977663908867
2.87525e-06	-0.0037971533879667643
2.87550e-06	-0.0037945301368448587
2.87575e-06	-0.003791906885722953
2.87600e-06	-0.003789283634601052
2.87625e-06	-0.0037866603834791463
2.87650e-06	-0.00378662780602305
2.87675e-06	-0.003788698552750727
2.87700e-06	-0.0037907692994784076
2.87725e-06	-0.003792840046206088
2.87750e-06	-0.003794910792933765
2.87775e-06	-0.0037969815396614454
2.87800e-06	-0.0037990522863891258
2.87825e-06	-0.003801123033116806
2.87850e-06	-0.003803193779844483
2.87875e-06	-0.0038054006762572555
2.87900e-06	-0.003810094125389008
2.87925e-06	-0.003814787574520753
2.87950e-06	-0.0038194810236525057
2.87975e-06	-0.003824174472784259
2.88000e-06	-0.0038288679219160115
2.88025e-06	-0.003833561371047756
2.88050e-06	-0.003838254820179509
2.88075e-06	-0.0038429482693112618
2.88100e-06	-0.003847641718443006
2.88125e-06	-0.0038519665967212836
2.88150e-06	-0.0038559922385500607
2.88175e-06	-0.0038600178803788305
2.88200e-06	-0.003864043522207607
2.88225e-06	-0.003868069164036384
2.88250e-06	-0.0038720948058651606
2.88275e-06	-0.003876120447693931
2.88300e-06	-0.0038801460895227075
2.88325e-06	-0.003884171731351484
2.88350e-06	-0.0038881973731802544
2.88375e-06	-0.003889641897685479
2.88400e-06	-0.003888990856639694
2.88425e-06	-0.0038883398155939086
2.88450e-06	-0.0038876887745481242
2.88475e-06	-0.0038870377335023395
2.88500e-06	-0.0038863866924565543
2.88525e-06	-0.00388573565141077
2.88550e-06	-0.0038850846103649847
2.88575e-06	-0.0038844335693191995
2.88600e-06	-0.0038837825282734156
2.88625e-06	-0.0038801590362699877
2.88650e-06	-0.003874122261548991
2.88675e-06	-0.0038680854868279944
2.88700e-06	-0.0038620487121070078
2.88725e-06	-0.003856011937386011
2.88750e-06	-0.0038499751626650145
2.88775e-06	-0.0038439383879440283
2.88800e-06	-0.0038379016132230317
2.88825e-06	-0.0038300993652782157
2.88850e-06	-0.003820863759447889
2.88875e-06	-0.0038116281536175784
2.88900e-06	-0.0038023925477872512
2.88925e-06	-0.0037931569419569246
2.88950e-06	-0.003783921336126614
2.88975e-06	-0.0037746857302962873
2.89000e-06	-0.0037654501244659606
2.89025e-06	-0.0037560157454512907
2.89050e-06	-0.0037464199858461833
2.89075e-06	-0.003736824226241076
2.89100e-06	-0.0037272284666359685
2.89125e-06	-0.003717632707030877
2.89150e-06	-0.00370803694742577
2.89175e-06	-0.0036984411878206625
2.89200e-06	-0.0036888454282155716
2.89225e-06	-0.003679249668610464
2.89250e-06	-0.003669847240234942
2.89275e-06	-0.0036639756925547907
2.89300e-06	-0.003658104144874649
2.89325e-06	-0.0036522325971944975
2.89350e-06	-0.003646361049514346
2.89375e-06	-0.003640489501834204
2.89400e-06	-0.003634617954154053
2.89425e-06	-0.0036287464064739014
2.89450e-06	-0.0036228748587937595
2.89475e-06	-0.003617003311113608
2.89500e-06	-0.0036140667631528894
2.89525e-06	-0.00361351309188228
2.89550e-06	-0.003612959420611672
2.89575e-06	-0.0036124057493410627
2.89600e-06	-0.0036118520780704538
2.89625e-06	-0.0036112984067998457
2.89650e-06	-0.0036107447355292364
2.89675e-06	-0.0036101910642586275
2.89700e-06	-0.003609637392988018
2.89725e-06	-0.00361134451491049
2.89750e-06	-0.003614887136633971
2.89775e-06	-0.0036184297583574518
2.89800e-06	-0.003621972380080927
2.89825e-06	-0.003625515001804408
2.89850e-06	-0.003629057623527889
2.89875e-06	-0.003632600245251364
2.89900e-06	-0.003636142866974845
2.89925e-06	-0.003639685488698326
2.89950e-06	-0.0036442103524237635
2.89975e-06	-0.0036495326818371874
2.90000e-06	-0.0036548550112506205
2.90025e-06	-0.0036601773406640535
2.90050e-06	-0.0036654996700774775
2.90075e-06	-0.0036708219994909105
2.90100e-06	-0.003676129185198202
2.90125e-06	-0.003681159795725185
2.90150e-06	-0.0036861904062521593
2.90175e-06	-0.0036912210167791425
2.90200e-06	-0.0036962516273061252
2.90225e-06	-0.0037012822378330998
2.90250e-06	-0.0037063128483600825
2.90275e-06	-0.003710749418749186
2.90300e-06	-0.003714703697985675
2.90325e-06	-0.003718028767069226
2.90350e-06	-0.0037208429910590723
2.90375e-06	-0.0037221731451915915
2.90400e-06	-0.0037222984080778772
2.90425e-06	-0.003720312468403249
2.90450e-06	-0.0037166124790347266
2.90475e-06	-0.0037129124896662104
2.90500e-06	-0.0037068445506959076
2.90525e-06	-0.003698854113446565
2.90550e-06	-0.0036908636761972223
2.90575e-06	-0.0036800501780165917
2.90600e-06	-0.0036669446843568174
2.90625e-06	-0.0036538391906970427
2.90650e-06	-0.0036375137647486474
2.90675e-06	-0.0036185741301705482
2.90700e-06	-0.003599634495592449
2.90725e-06	-0.0035806948610143823
2.90750e-06	-0.0035614487963441894
2.90775e-06	-0.0035366062840677566
2.90800e-06	-0.0035117637717913238
2.90825e-06	-0.003486921259514933
2.90850e-06	-0.0034620787472385
2.90875e-06	-0.003435449450034858
2.90900e-06	-0.00340736949233364
2.90925e-06	-0.0033786299337511235
2.90950e-06	-0.0033493548563559824
2.90975e-06	-0.0033196721062946095
2.91000e-06	-0.0032894617655881754
2.91025e-06	-0.003258992855533963
2.91050e-06	-0.003228443226935359
2.91075e-06	-0.0031979912038920515
2.91100e-06	-0.0031678152873523993
2.91125e-06	-0.003138085681615277
2.91150e-06	-0.0031089410570756455
2.91175e-06	-0.0030804941177666146
2.91200e-06	-0.003052880420713095
2.91225e-06	-0.0030262770762214514
2.91250e-06	-0.0030008768922380716
2.91275e-06	-0.0029796275974997496
2.91300e-06	-0.0029612791716660345
2.91325e-06	-0.00294293074583235
2.91350e-06	-0.0029245823199986346
2.91375e-06	-0.0029062338941649194
2.91400e-06	-0.0028878854683312043
2.91425e-06	-0.00286953704249752
2.91450e-06	-0.0028511886166638044
2.91475e-06	-0.0028328401908300892
2.91500e-06	-0.0028185470175428828
2.91525e-06	-0.0028075462352915247
2.91550e-06	-0.0027965454530401667
2.91575e-06	-0.0027855446707888273
2.91600e-06	-0.0027745438885374693
2.91625e-06	-0.0027635431062861112
2.91650e-06	-0.002752542324034753
2.91675e-06	-0.002741541541783414
2.91700e-06	-0.002730540759532056
2.91725e-06	-0.002722398052633337
2.91750e-06	-0.0027165757688311374
2.91775e-06	-0.0027107534850289283
2.91800e-06	-0.0027049312012267187
2.91825e-06	-0.002699108917424509
2.91850e-06	-0.0026932866336223096
2.91875e-06	-0.0026874643498201
2.91900e-06	-0.002681642066017891
2.91925e-06	-0.0026758197822156914
2.91950e-06	-0.002669997498413482
2.91975e-06	-0.0026641752146112723
2.92000e-06	-0.0026583529308090727
2.92025e-06	-0.002652530647006863
2.92050e-06	-0.002646864784807535
2.92075e-06	-0.0026440557089619228
2.92100e-06	-0.0026412466331163153
2.92125e-06	-0.002638437557270703
2.92150e-06	-0.002635628481425091
2.92175e-06	-0.0026328194055794834
2.92200e-06	-0.002630010329733871
2.92225e-06	-0.002627201253888259
2.92250e-06	-0.0026243921780426515
2.92275e-06	-0.0026215831021970393
2.92300e-06	-0.002618774026351427
2.92325e-06	-0.002615964950505815
2.92350e-06	-0.0026131558746602074
2.92375e-06	-0.002610346798814595
2.92400e-06	-0.0026082872444070024
2.92425e-06	-0.0026068362137930904
2.92450e-06	-0.002605385183179176
2.92475e-06	-0.0026039341525652612
2.92500e-06	-0.0026024831219513466
2.92525e-06	-0.0026010320913374347
2.92550e-06	-0.00259958106072352
2.92575e-06	-0.0025981300301096055
2.92600e-06	-0.0025966789994956935
2.92625e-06	-0.002595227968881779
2.92650e-06	-0.0025937769382678643
2.92675e-06	-0.0025923259076539524
2.92700e-06	-0.0025908748770400378
2.92725e-06	-0.002589423846426123
2.92750e-06	-0.002587972815812209
2.92775e-06	-0.0025865567243407387
2.92800e-06	-0.002585778739521634
2.92825e-06	-0.0025850007547025293
2.92850e-06	-0.002584222769883426
2.92875e-06	-0.0025834447850643216
2.92900e-06	-0.002582666800245217
2.92925e-06	-0.002581888815426112
2.92950e-06	-0.0025811108306070087
2.92975e-06	-0.002580332845787904
2.93000e-06	-0.0025795548609687997
2.93025e-06	-0.0025787768761496963
2.93050e-06	-0.0025779988913305915
2.93075e-06	-0.002577220906511487
2.93100e-06	-0.0025764429216923834
2.93125e-06	-0.002575664936873279
2.93150e-06	-0.0025748869520541744
2.93175e-06	-0.0025741986512836683
2.93200e-06	-0.0025735831634771705
2.93225e-06	-0.002572971080974266
2.93250e-06	-0.0025723645902243175
2.93275e-06	-0.002571763607254597
2.93300e-06	-0.002571168702055012
2.93325e-06	-0.0025706652801236853
2.93350e-06	-0.002570662013679773
2.93375e-06	-0.002571850371485137
2.93400e-06	-0.0025747080281624856
2.93425e-06	-0.002579300256646477
2.93450e-06	-0.002585533625695456
2.93475e-06	-0.0025933099851064402
2.93500e-06	-0.002602531337351837
2.93525e-06	-0.002613152836394544
2.93550e-06	-0.0026259003265425383
2.93575e-06	-0.0026398648100569664
2.93600e-06	-0.002656623527215393
2.93625e-06	-0.002675650835465828
2.93650e-06	-0.0026946781437162948
2.93675e-06	-0.0027170718480046727
2.93700e-06	-0.0027421986723670357
2.93725e-06	-0.0027673254967294416
2.93750e-06	-0.002792452321091847
2.93775e-06	-0.0028179085966817973
2.93800e-06	-0.0028493817635084485
2.93825e-06	-0.002880854930335153
2.93850e-06	-0.0029123280971618576
2.93875e-06	-0.0029438012639885084
2.93900e-06	-0.0029771097966457246
2.93925e-06	-0.0030119084318155883
2.93950e-06	-0.003046707066985393
2.93975e-06	-0.003082283867569147
2.94000e-06	-0.0031184924475067643
2.94025e-06	-0.003154701027444381
2.94050e-06	-0.00319094312499279
2.94075e-06	-0.0032272124349232933
2.94100e-06	-0.0032629415223514595
2.94125e-06	-0.003298232012255982
2.94150e-06	-0.003332620160958995
2.94175e-06	-0.00336627571408384
2.94200e-06	-0.0033982714708358456
2.94225e-06	-0.0034289196669518834
2.94250e-06	-0.003459567863067973
2.94275e-06	-0.0034872400380123896
2.94300e-06	-0.003512496031641842
2.94325e-06	-0.0035377520252713375
2.94350e-06	-0.0035611871880768843
2.94375e-06	-0.0035831440490959815
2.94400e-06	-0.003605100910115116
2.94425e-06	-0.0036267191897221295
2.94450e-06	-0.0036480625808003432
2.94475e-06	-0.003669405971878521
2.94500e-06	-0.0036907493629567347
2.94525e-06	-0.003712092754034949
