Time(s)	Current(A)
1.02500e-05	-0.0029660303893889713
1.02503e-05	-0.0029503759974988204
1.02505e-05	-0.002937721489034782
1.02508e-05	-0.0029250669805708294
1.02510e-05	-0.002912412472106791
1.02513e-05	-0.0028997579636427526
1.02515e-05	-0.0028871034551788
1.02518e-05	-0.0028744489467147616
1.02520e-05	-0.0028617944382507234
1.02522e-05	-0.0028491399297867707
1.02525e-05	-0.0028364854213227325
1.02528e-05	-0.0028249662297634595
1.02530e-05	-0.0028158685120611322
1.02533e-05	-0.0028067707943587434
1.02535e-05	-0.0027976730766563545
1.02537e-05	-0.0027885753589540277
1.02540e-05	-0.002779477641251639
1.02543e-05	-0.00277037992354925
1.02545e-05	-0.002761282205846923
1.02548e-05	-0.0027521844881445343
1.02550e-05	-0.0027430867704421455
1.02553e-05	-0.002734622219534152
1.02555e-05	-0.002727508125783485
1.02558e-05	-0.0027203940320327698
1.02560e-05	-0.0027132799382820548
1.02563e-05	-0.0027061658445313875
1.02565e-05	-0.0026990517507806725
1.02568e-05	-0.002691937657029957
1.02570e-05	-0.00268482356327929
1.02573e-05	-0.002679116833335051
1.02575e-05	-0.0026737207192936434
1.02578e-05	-0.002668324605252272
1.02580e-05	-0.002662928491210864
1.02583e-05	-0.002657532377169456
1.02585e-05	-0.0026521362631280847
1.02588e-05	-0.002646740149086677
1.02590e-05	-0.002642162830485043
1.02593e-05	-0.0026393318892549986
1.02595e-05	-0.0026365009480249346
1.02598e-05	-0.002633670006794871
1.02600e-05	-0.0026308390655648264
1.02603e-05	-0.0026280081243347624
1.02605e-05	-0.0026251771831046987
1.02607e-05	-0.002622346241874654
1.02610e-05	-0.002622119406879723
1.02613e-05	-0.0026224673179495142
1.02615e-05	-0.002622815229019303
1.02618e-05	-0.0026231631400890944
1.02620e-05	-0.0026235110511588855
1.02622e-05	-0.002623858962228674
1.02625e-05	-0.0026242068732984652
1.02628e-05	-0.002625454217608029
1.02630e-05	-0.0026286199285582776
1.02633e-05	-0.002631785639508548
1.02635e-05	-0.002634951350458818
1.02638e-05	-0.0026381170614090885
1.02640e-05	-0.0026412827723593375
1.02643e-05	-0.002644448483309608
1.02645e-05	-0.002647614194259878
1.02648e-05	-0.0026512778786014876
1.02650e-05	-0.0026560036712795607
1.02653e-05	-0.0026607294639576337
1.02655e-05	-0.0026654552566356747
1.02658e-05	-0.0026701810493137477
1.02660e-05	-0.0026749068419918208
1.02663e-05	-0.0026796326346698617
1.02665e-05	-0.002684358427347935
1.02668e-05	-0.002689033633906719
1.02670e-05	-0.0026936009472729046
1.02673e-05	-0.0026981682606391204
1.02675e-05	-0.0027027355740053367
1.02678e-05	-0.002707302887371522
1.02680e-05	-0.002711870200737738
1.02683e-05	-0.0027164375141039542
1.02685e-05	-0.0027194208829543413
1.02688e-05	-0.002722054663195354
1.02690e-05	-0.0027246884434363665
1.02692e-05	-0.0027273222236773613
1.02695e-05	-0.002729956003918374
1.02698e-05	-0.0027325897841593864
1.02700e-05	-0.002734315536806191
1.02703e-05	-0.0027341045922430396
1.02705e-05	-0.0027338936476798883
1.02707e-05	-0.0027327094235804986
1.02710e-05	-0.0027294493289080537
1.02713e-05	-0.0027261892342356083
1.02715e-05	-0.0027229291395631855
1.02718e-05	-0.00271966904489074
1.02720e-05	-0.002716408950218295
1.02723e-05	-0.002711893152028934
1.02725e-05	-0.0027046991119962583
1.02728e-05	-0.002697505071963534
1.02730e-05	-0.002690311031930809
1.02733e-05	-0.0026831169918981332
1.02735e-05	-0.002675922951865409
1.02738e-05	-0.0026678091947857255
1.02740e-05	-0.0026577338085108488
1.02743e-05	-0.0026476584222359044
1.02745e-05	-0.0026375830359609597
1.02748e-05	-0.0026275076496860834
1.02750e-05	-0.0026174322634111387
1.02753e-05	-0.00260623754503441
1.02755e-05	-0.002594795781544049
1.02758e-05	-0.0025833540180536106
1.02760e-05	-0.002571912254563172
1.02763e-05	-0.002560470491072811
1.02765e-05	-0.0025490051313504913
1.02768e-05	-0.0025374894441306927
1.02770e-05	-0.0025260880592877675
1.02773e-05	-0.0025149304655979086
1.02775e-05	-0.0025039567738790384
1.02777e-05	-0.0024933753196169726
1.02780e-05	-0.00248348143849482
1.02783e-05	-0.0024750540557375534
1.02785e-05	-0.002466626672980344
1.02788e-05	-0.0024581992902230777
1.02790e-05	-0.0024497719074658116
1.02792e-05	-0.0024413445247086023
1.02795e-05	-0.002432917141951336
1.02798e-05	-0.0024244897591940693
1.02800e-05	-0.0024173280629072574
1.02803e-05	-0.0024104457132571922
1.02805e-05	-0.002403563363607127
1.02808e-05	-0.002396681013957062
1.02810e-05	-0.0023897986643070437
1.02813e-05	-0.0023829163146569785
1.02815e-05	-0.0023760339650069134
1.02818e-05	-0.0023691131596358687
1.02820e-05	-0.0023621103335331136
1.02823e-05	-0.002355107507430358
1.02825e-05	-0.0023481046813276503
1.02828e-05	-0.002341101855224895
1.02830e-05	-0.0023340990291221397
1.02833e-05	-0.0023269303336560356
1.02835e-05	-0.00231972502955899
1.02838e-05	-0.0023125197254619443
1.02840e-05	-0.002305314421364948
1.02843e-05	-0.0022981091172679024
1.02845e-05	-0.0022908764300562413
1.02848e-05	-0.00228358533845027
1.02850e-05	-0.002276294246844249
1.02853e-05	-0.002269036053711646
1.02855e-05	-0.002261848028470598
1.02858e-05	-0.002254660003229501
1.02860e-05	-0.0022475011729062677
1.02862e-05	-0.0022404046113030677
1.02865e-05	-0.002233392252946163
1.02868e-05	-0.0022265594884621747
1.02870e-05	-0.0022198485697173123
1.02873e-05	-0.0022133975310735946
1.02875e-05	-0.002207032627966073
1.02877e-05	-0.0022009142394586543
1.02880e-05	-0.002195005375685655
1.02883e-05	-0.0021893463064743476
1.02885e-05	-0.0021839777771874066
1.02888e-05	-0.0021789402359120363
1.02890e-05	-0.002174284198601378
1.02893e-05	-0.0021701023298067233
1.02895e-05	-0.0021665240480177625
1.02898e-05	-0.002163641688726088
1.02900e-05	-0.002161475773747312
1.02903e-05	-0.00216001871373729
1.02905e-05	-0.0021593723787927867
1.02908e-05	-0.002159434195328677
1.02910e-05	-0.002159949431110727
1.02913e-05	-0.0021614317474035545
1.02915e-05	-0.0021635328052033442
1.02918e-05	-0.0021669535530198917
1.02920e-05	-0.0021703743008364617
1.02923e-05	-0.002174671490739583
1.02925e-05	-0.002180838010336714
1.02928e-05	-0.002187004529933887
1.02930e-05	-0.0021931710495310596
1.02933e-05	-0.0021993375691281903
1.02935e-05	-0.002206401340087231
1.02938e-05	-0.002215378824045237
1.02940e-05	-0.0022243563080031822
1.02943e-05	-0.002233333791961188
1.02945e-05	-0.002242311275919194
1.02947e-05	-0.0022517650940991015
1.02950e-05	-0.0022622348672624998
1.02953e-05	-0.002272704640425898
1.02955e-05	-0.0022833644220915327
1.02958e-05	-0.002294429465600539
1.02960e-05	-0.0023054945091095457
1.02962e-05	-0.002316572607961465
1.02965e-05	-0.00232767855205354
1.02968e-05	-0.002338784496145615
1.02970e-05	-0.0023497600354454237
1.02973e-05	-0.0023604574393681008
1.02975e-05	-0.002370962691928576
1.02978e-05	-0.002381058112222086
1.02980e-05	-0.0023904343862551107
1.02983e-05	-0.002398276820825304
1.02985e-05	-0.0024061192553954973
1.02988e-05	-0.0024139616899656376
1.02990e-05	-0.002421804124535831
1.02993e-05	-0.002429646559106024
1.02995e-05	-0.002437488993676164
1.02998e-05	-0.0024453314282463575
1.03000e-05	-0.002452889983425437
1.03003e-05	-0.002459843063144487
1.03005e-05	-0.002466796142863583
1.03008e-05	-0.0024737492225826796
1.03010e-05	-0.0024807023023017288
1.03013e-05	-0.002487655382020825
1.03015e-05	-0.0024946084617399216
1.03018e-05	-0.0025015615414589708
1.03020e-05	-0.0025088716451720076
1.03023e-05	-0.002516943231661685
1.03025e-05	-0.0025250148181513075
1.03028e-05	-0.002533086404640985
1.03030e-05	-0.0025411579911306624
1.03032e-05	-0.002549229577620285
1.03035e-05	-0.0025573011641099627
1.03038e-05	-0.00256537275059964
1.03040e-05	-0.002574077421920926
1.03043e-05	-0.002582921819883019
1.03045e-05	-0.0025917662178451123
1.03047e-05	-0.002600610615807146
1.03050e-05	-0.0026094550137692393
1.03053e-05	-0.0026182994117313323
1.03055e-05	-0.002627143809693366
1.03058e-05	-0.0026359410868080683
1.03060e-05	-0.002644637861675516
1.03063e-05	-0.002653334636542964
1.03065e-05	-0.002662031411410353
1.03068e-05	-0.0026707281862778007
1.03070e-05	-0.002679424961145249
1.03073e-05	-0.0026870745707824476
1.03075e-05	-0.0026944930630833914
1.03078e-05	-0.0027019115553843357
1.03080e-05	-0.0027093300476852293
1.03083e-05	-0.002716748539986173
1.03085e-05	-0.0027237800405720525
1.03088e-05	-0.0027297764507701033
1.03090e-05	-0.0027353256199156278
1.03093e-05	-0.0027412146862782283
1.03095e-05	-0.002747828706372459
1.03098e-05	-0.002755385163683232
1.03100e-05	-0.002764951709169682
1.03103e-05	-0.002775344605843672
1.03105e-05	-0.0027874999952569096
1.03108e-05	-0.002800556178562994
1.03110e-05	-0.002815533630597644
1.03113e-05	-0.0028305110826323952
1.03115e-05	-0.0028477550949002985
1.03117e-05	-0.002869833366516738
1.03120e-05	-0.002891911638133327
1.03123e-05	-0.002913989909749916
1.03125e-05	-0.002936068181366355
1.03128e-05	-0.002958146452982944
1.03130e-05	-0.002986547354007136
1.03132e-05	-0.0030163437074635833
1.03135e-05	-0.003046140060920232
1.03138e-05	-0.003075936414376881
1.03140e-05	-0.003105732767833328
1.03143e-05	-0.003137011210128084
1.03145e-05	-0.003171450742835219
1.03148e-05	-0.003205890275542354
1.03150e-05	-0.003240817240751136
1.03153e-05	-0.0032767838320397823
1.03155e-05	-0.003312750423328428
1.03158e-05	-0.0033489596160851585
1.03160e-05	-0.003385686244204905
1.03163e-05	-0.003422412872324652
1.03165e-05	-0.0034587857923092874
1.03168e-05	-0.0034944043017856707
1.03170e-05	-0.0035300228112620543
1.03173e-05	-0.0035648017903430356
1.03175e-05	-0.0035977901672584905
1.03178e-05	-0.0036307785441739454
1.03180e-05	-0.0036624277451294067
1.03183e-05	-0.003691220669066648
1.03185e-05	-0.0037200135930038894
1.03188e-05	-0.0037455106646395917
1.03190e-05	-0.003763978139368431
1.03193e-05	-0.0037824456140972706
1.03195e-05	-0.0038009130888259847
1.03198e-05	-0.003819380563554824
1.03200e-05	-0.0038378480382836636
1.03202e-05	-0.0038563155130123777
1.03205e-05	-0.003874782987741217
1.03208e-05	-0.0038816016405344446
1.03210e-05	-0.0038858493096649836
1.03213e-05	-0.003890096978795551
1.03215e-05	-0.0038943446479261187
1.03217e-05	-0.0038985923170566576
1.03220e-05	-0.003902839986187225
1.03223e-05	-0.003907087655317792
1.03225e-05	-0.003907500868646422
1.03228e-05	-0.0038997357183278717
1.03230e-05	-0.0038919705680093217
1.03232e-05	-0.003884205417690824
1.03235e-05	-0.003876440267372274
1.03238e-05	-0.0038686751170537237
1.03240e-05	-0.0038609099667351737
1.03243e-05	-0.003853144816416676
1.03245e-05	-0.0038392991372973133
1.03248e-05	-0.0038241114391913285
1.03250e-05	-0.003808923741085447
1.03253e-05	-0.0037937360429794622
1.03255e-05	-0.0037785483448734775
1.03258e-05	-0.0037633606467675955
1.03260e-05	-0.0037481729486616108
1.03263e-05	-0.0037323592629622472
1.03265e-05	-0.0037152104323448956
1.03268e-05	-0.003698061601727428
1.03270e-05	-0.003681016346800644
1.03273e-05	-0.0036641920044903293
1.03275e-05	-0.0036473676621799006
1.03278e-05	-0.003631198161752645
1.03280e-05	-0.003616425348451212
1.03283e-05	-0.0036016525351496784
1.03285e-05	-0.003586879721848145
1.03287e-05	-0.0035729694901686974
1.03290e-05	-0.0035608990257327325
1.03293e-05	-0.0035488285612967677
1.03295e-05	-0.0035367580968608844
1.03298e-05	-0.003524276083883059
1.03300e-05	-0.003510916294811721
1.03302e-05	-0.0034975565057404727
1.03305e-05	-0.003484196716669134
1.03308e-05	-0.0034708369275977956
1.03310e-05	-0.0034574771385265475
1.03313e-05	-0.003444117349455209
1.03315e-05	-0.0034297362284102044
1.03317e-05	-0.0034131767475878046
1.03320e-05	-0.0033966172667652924
1.03323e-05	-0.00338005778594278
1.03325e-05	-0.003363498305120268
1.03328e-05	-0.003346938824297868
1.03330e-05	-0.0033303793434753563
1.03333e-05	-0.0033128061607468427
1.03335e-05	-0.0032930708921193722
1.03338e-05	-0.0032733356234917687
1.03340e-05	-0.0032536003548641647
1.03343e-05	-0.0032338650862366947
1.03345e-05	-0.0032141298176090907
1.03348e-05	-0.003193953144615018
1.03350e-05	-0.0031728350171846826
1.03353e-05	-0.0031517168897542036
1.03355e-05	-0.003130598762323725
1.03358e-05	-0.0031094806348933896
1.03360e-05	-0.0030883625074629105
1.03363e-05	-0.003067364974737555
1.03365e-05	-0.0030466246538316524
1.03368e-05	-0.0030258843329256093
1.03370e-05	-0.0030055092891204285
1.03373e-05	-0.002985913330828077
1.03375e-05	-0.0029666713160132778
1.03378e-05	-0.002948184213661195
1.03380e-05	-0.00293078077909489
1.03383e-05	-0.0029156886579681392
1.03385e-05	-0.002900596536841388
1.03387e-05	-0.002885504415714739
1.03390e-05	-0.002870412294587988
1.03393e-05	-0.002855320173461237
1.03395e-05	-0.002841041533975724
1.03398e-05	-0.0028284979382693014
1.03400e-05	-0.002815954342562878
1.03402e-05	-0.00280341074685654
1.03405e-05	-0.002790867151150117
1.03408e-05	-0.0027783235554436937
1.03410e-05	-0.0027658615408623632
1.03413e-05	-0.0027535735275325737
1.03415e-05	-0.002741285514202701
1.03418e-05	-0.0027289975008728284
1.03420e-05	-0.002716709487543039
1.03423e-05	-0.002704421474213166
1.03425e-05	-0.002692133460883293
1.03428e-05	-0.0026791728015224544
1.03430e-05	-0.002666063684062662
1.03433e-05	-0.0026529545666028696
1.03435e-05	-0.0026398454491431663
1.03438e-05	-0.0026267363316833737
1.03440e-05	-0.0026136272142235815
1.03443e-05	-0.0026003764622044923
1.03445e-05	-0.002586823623268044
1.03448e-05	-0.002573270784331596
1.03450e-05	-0.00255971794539524
1.03453e-05	-0.002546165106458792
1.03455e-05	-0.0025326122675223437
1.03458e-05	-0.0025192584544406894
1.03460e-05	-0.0025063291359679464
1.03463e-05	-0.0024933998174952034
1.03465e-05	-0.002480470499022548
1.03468e-05	-0.002467541180549805
1.03470e-05	-0.002454611862077062
1.03472e-05	-0.0024420684813428024
1.03475e-05	-0.002430348252402554
1.03478e-05	-0.0024188754680415443
1.03480e-05	-0.0024079304487294156
1.03483e-05	-0.0023972290837355843
1.03485e-05	-0.0023872430068766297
1.03487e-05	-0.002377894711402219
1.03490e-05	-0.00236931460023448
1.03493e-05	-0.0023618501816103556
1.03495e-05	-0.0023560644285745536
1.03498e-05	-0.0023523712056881434
1.03500e-05	-0.0023508485708703224
1.03503e-05	-0.00235143715230699
1.03505e-05	-0.0023543890112848248
1.03508e-05	-0.00235937449744208
1.03510e-05	-0.0023656667317707375
1.03513e-05	-0.002374746079135311
1.03515e-05	-0.002385743112699144
1.03518e-05	-0.002400830305577271
1.03520e-05	-0.0024159174984552958
1.03523e-05	-0.0024336823248354584
1.03525e-05	-0.0024571581729737908
1.03528e-05	-0.002480634021111964
1.03530e-05	-0.0025041098692502963
1.03533e-05	-0.0025275857173886287
1.03535e-05	-0.0025538151380198773
1.03538e-05	-0.0025859175477701006
1.03540e-05	-0.0026180199575203235
1.03543e-05	-0.002650122367270329
1.03545e-05	-0.0026822247770205525
1.03548e-05	-0.0027157594495543706
1.03550e-05	-0.002752348940424757
1.03553e-05	-0.002788938431295392
1.03555e-05	-0.002826042344793001
1.03557e-05	-0.002864243450573642
1.03560e-05	-0.0029025848703252677
1.03563e-05	-0.0029412255603613858
1.03565e-05	-0.0029797087687743803
1.03568e-05	-0.0030178560906765958
1.03570e-05	-0.0030555723261449226
1.03572e-05	-0.0030923691138983744
1.03575e-05	-0.0031285133822331525
1.03578e-05	-0.0031632659169355728
1.03580e-05	-0.003196117505757917
1.03583e-05	-0.0032249146400491024
1.03585e-05	-0.003253711774340483
1.03588e-05	-0.0032825089086318637
1.03590e-05	-0.00330488911495331
1.03593e-05	-0.003953357311347067
1.03595e-05	-0.012161971089497542
1.03598e-05	-0.018026617787259162
1.03600e-05	-0.01594447930054314
1.03603e-05	-0.013757007648860875
1.03605e-05	-0.007756950893476082
1.03608e-05	-0.002480418785480926
1.03610e-05	-0.0026536024606166734
1.03613e-05	-0.003536223446569164
1.03615e-05	-0.00780786550794844
1.03618e-05	-0.012503521411704837
1.03620e-05	-0.011048992579230268
1.03623e-05	-0.009456066174990778
1.03625e-05	-0.006132067199928022
1.03628e-05	-0.003262831950501424
1.03630e-05	-0.002105806786283551
1.03633e-05	-0.002485772859828381
1.03635e-05	-0.004604971063671489
1.03638e-05	-0.006842542142085707
1.03640e-05	-0.007606017238699589
1.03642e-05	-0.006776127403693251
1.03645e-05	-0.004927705029533499
1.03648e-05	-0.0030792715184595363
1.03650e-05	-0.0021841927187870587
1.03653e-05	-0.0024983128381349975
1.03655e-05	-0.0038371834778203884
1.03657e-05	-0.005248723626207802
1.03660e-05	-0.005735642969007306
1.03663e-05	-0.005223487637690589
1.03665e-05	-0.00407255382577224
1.03668e-05	-0.0029210012537861834
1.03670e-05	-0.0023661039433710025
1.03673e-05	-0.0025681616260166866
1.03675e-05	-0.0034116615678609036
1.03678e-05	-0.004300269074911869
1.03680e-05	-0.004609377601771545
1.03683e-05	-0.0042924669772673825
1.03685e-05	-0.003575329420838064
1.03688e-05	-0.0028577754868933814
1.03690e-05	-0.002513915188552903
1.03693e-05	-0.002643909762351477
1.03695e-05	-0.003174934707389159
1.03698e-05	-0.0037330983367965106
1.03700e-05	-0.0039271139331805835
1.03703e-05	-0.003727946108324673
1.03705e-05	-0.0032771296351906997
1.03708e-05	-0.0028251841432905835
1.03710e-05	-0.0026065065297251186
1.03713e-05	-0.002683877947660132
1.03715e-05	-0.003011719075644492
1.03718e-05	-0.0033558739470313766
1.03720e-05	-0.0034713119220673955
1.03723e-05	-0.0033399271608921047
1.03725e-05	-0.003050454655503229
1.03727e-05	-0.002759885481140868
1.03730e-05	-0.0026150971800512606
1.03733e-05	-0.0026554579819047224
1.03735e-05	-0.0028524591910574996
1.03738e-05	-0.0030594751677318756
1.03740e-05	-0.0031230814588715065
1.03742e-05	-0.0030320067222668937
1.03745e-05	-0.0028419022122380283
1.03748e-05	-0.002651167214428195
1.03750e-05	-0.0025518572426008095
1.03753e-05	-0.00256867885751051
1.03755e-05	-0.002683819607080842
1.03758e-05	-0.0028054840180764757
1.03760e-05	-0.0028376263678455147
1.03763e-05	-0.002773249739420776
1.03765e-05	-0.0026472763080496327
1.03768e-05	-0.0025214012733516134
1.03770e-05	-0.0024533402264918943
1.03773e-05	-0.0024586181003623153
1.03775e-05	-0.0025261262474093995
1.03778e-05	-0.0025984156043126496
1.03780e-05	-0.002615380169165183
1.03783e-05	-0.0025726973609870468
1.03785e-05	-0.0024923016077370947
1.03788e-05	-0.0024128948742745448
1.03790e-05	-0.0023705917579600138
1.03793e-05	-0.0023747040409983723
1.03795e-05	-0.0024174557907311266
1.03798e-05	-0.0024622041815184365
1.03800e-05	-0.002471144428414979
1.03803e-05	-0.0024416348011804525
1.03805e-05	-0.0023874819360726455
1.03808e-05	-0.002332994155928767
1.03810e-05	-0.0023008568953051985
1.03812e-05	-0.002296964768568699
1.03815e-05	-0.0023165085960850026
1.03818e-05	-0.002336598672699411
1.03820e-05	-0.002333619259094423
1.03823e-05	-0.002305981843670004
1.03825e-05	-0.0022624009909626036
1.03827e-05	-0.002218168320366143
1.03830e-05	-0.002187557417767145
1.03833e-05	-0.0021743236639200155
1.03835e-05	-0.0021755170312124797
1.03838e-05	-0.00217686301379025
1.03840e-05	-0.0021636336580464323
1.03843e-05	-0.002134899366196534
1.03845e-05	-0.002096184370841913
1.03848e-05	-0.0020571317538355164
1.03850e-05	-0.0020267464948200077
1.03853e-05	-0.002007444089455492
1.03855e-05	-0.0019974398765146124
1.03858e-05	-0.001987856051941577
1.03860e-05	-0.001969531608826789
1.03863e-05	-0.0019419492866589558
1.03865e-05	-0.0019086343017367716
1.03868e-05	-0.0018756915822749918
1.03870e-05	-0.0018488255101682992
1.03873e-05	-0.001829612730745755
1.03875e-05	-0.0018169990863943493
1.03878e-05	-0.0018054871598441984
1.03880e-05	-0.0017894028976134686
1.03883e-05	-0.0017684869245057225
1.03885e-05	-0.0017450119215364581
1.03888e-05	-0.0017228662187890166
1.03890e-05	-0.0017056607713122108
1.03893e-05	-0.0016943082642357312
1.03895e-05	-0.0016879331007143392
1.03897e-05	-0.0016828847594309649
1.03900e-05	-0.0016755205615555503
1.03903e-05	-0.0016656465061944297
1.03905e-05	-0.0016546548187735559
1.03908e-05	-0.0016449497736039725
1.03910e-05	-0.0016387616235264528
1.03912e-05	-0.001637084704710401
1.03915e-05	-0.001638728372639281
1.03918e-05	-0.001640479092607619
1.03920e-05	-0.0016418278201412327
1.03923e-05	-0.00164192352089557
1.03925e-05	-0.0016415334131521266
1.03928e-05	-0.0016425264151293435
1.03930e-05	-0.0016458107823963748
1.03933e-05	-0.0016509139169265817
1.03935e-05	-0.001659030160333712
1.03938e-05	-0.0016669412389234573
1.03940e-05	-0.001674512425793811
1.03943e-05	-0.0016820836126641646
