Time(s)	Current(A)
5.50000e-07	0.012366594933995141
5.50250e-07	0.012345515137509833
5.50500e-07	0.01232481369932128
5.50750e-07	0.012306014336369984
5.51000e-07	0.012289166541239696
5.51250e-07	0.012273949137928675
5.51500e-07	0.012259346175672833
5.51750e-07	0.012244199519062656
5.52000e-07	0.012228106945590088
5.52250e-07	0.012211203814604193
5.52500e-07	0.012193580525685874
5.52750e-07	0.012175819272865382
5.53000e-07	0.012157843511559931
5.53250e-07	0.012139666644579229
5.53500e-07	0.012120773423401456
5.53750e-07	0.01209991682339916
5.54000e-07	0.012078625392359588
5.54250e-07	0.012055253004007017
5.54500e-07	0.012031377618484175
5.54750e-07	0.012005926420629521
5.55000e-07	0.011980094326377411
5.55250e-07	0.011954262232125314
5.55500e-07	0.011926770697233446
5.55750e-07	0.011898878051785
5.56000e-07	0.011869234837092173
5.56250e-07	0.011839168484754574
5.56500e-07	0.011808209222097606
5.56750e-07	0.011776689116587791
5.57000e-07	0.01174493036019958
5.57250e-07	0.011713070323657879
5.57500e-07	0.01168104262119655
5.57750e-07	0.011648746357107798
5.58000e-07	0.011616265068407976
5.58250e-07	0.0115838140997609
5.58500e-07	0.011551630757130203
5.58750e-07	0.01151995327780208
5.59000e-07	0.011489017830266625
5.59250e-07	0.01145900228685081
5.59500e-07	0.011429955055758953
5.59750e-07	0.01140190337635468
5.60000e-07	0.011374989374117638
5.60250e-07	0.01134943955201115
5.60500e-07	0.011326253221283165
5.60750e-07	0.01130357179130099
5.61000e-07	0.011285091027477621
5.61250e-07	0.011267625624794999
5.61500e-07	0.011250160222112376
5.61750e-07	0.01123789971281113
5.62000e-07	0.011226897300745267
5.62250e-07	0.011215894888679407
5.62500e-07	0.011204892476613543
5.62750e-07	0.01120016012506211
5.63000e-07	0.011196943336889389
5.63250e-07	0.011193726548716667
5.63500e-07	0.011190509760543945
5.63750e-07	0.011194329625708497
5.64000e-07	0.011199850350710389
5.64250e-07	0.011205371075712279
5.64500e-07	0.011210891800714171
5.64750e-07	0.011216412525716063
5.65000e-07	0.011221933250717952
5.65250e-07	0.011234375999522902
5.65500e-07	0.011248491900565918
5.65750e-07	0.011262607801608936
5.66000e-07	0.011276723702651955
5.66250e-07	0.011290839603694971
5.66500e-07	0.011304955504737984
5.66750e-07	0.011322787427769541
5.67000e-07	0.011341517566508492
5.67250e-07	0.01136024770524744
5.67500e-07	0.011380555156377531
5.67750e-07	0.011401243866490888
5.68000e-07	0.011421932576604255
5.68250e-07	0.01144331731424923
5.68500e-07	0.01146487029171184
5.68750e-07	0.011486423269174451
5.69000e-07	0.011508009747962216
5.69250e-07	0.011529604324499816
5.69500e-07	0.011551198901037426
5.69750e-07	0.011571999796180692
5.70000e-07	0.01159260884716984
5.70250e-07	0.011612695684065269
5.70500e-07	0.011631594454278398
5.70750e-07	0.011650493224491519
5.71000e-07	0.011668126394643399
5.71250e-07	0.011684973632156804
5.71500e-07	0.011702210362205789
5.71750e-07	0.011721804372083741
5.72000e-07	0.011741938634824345
5.72250e-07	0.011765581536350374
5.72500e-07	0.011790072526095038
5.72750e-07	0.011814563515839701
5.73000e-07	0.011841754987402853
5.73250e-07	0.01186959920407742
5.73500e-07	0.011903432482651381
5.73750e-07	0.011938713403216509
5.74000e-07	0.011973994323781637
5.74250e-07	0.012009275244346767
5.74500e-07	0.012044556164911895
5.74750e-07	0.012087586992027246
5.75000e-07	0.012132491082491342
5.75250e-07	0.012177395172955458
5.75500e-07	0.012222299263419573
5.75750e-07	0.012267203353883687
5.76000e-07	0.012317564860217765
5.76250e-07	0.012369245502087447
5.76500e-07	0.01242092614395715
5.76750e-07	0.012475016381139225
5.77000e-07	0.01252968905200031
5.77250e-07	0.012584361722861395
5.77500e-07	0.012640361946234276
5.77750e-07	0.012696683058052407
5.78000e-07	0.012753004169870562
5.78250e-07	0.012809447536524549
5.78500e-07	0.012865920453922364
5.78750e-07	0.012922393371320182
5.79000e-07	0.012976877210039288
5.79250e-07	0.013030880259969223
5.79500e-07	0.01308488330989916
5.79750e-07	0.01313549372563229
5.80000e-07	0.013185284093116383
5.80250e-07	0.013235074460600476
5.80500e-07	0.013279977934781815
5.80750e-07	0.013323700176898746
5.81000e-07	0.013365410342103513
5.81250e-07	0.01340254291821149
5.81500e-07	0.013439675494319465
5.81750e-07	0.013473408121655595
5.82000e-07	0.01350631893270518
5.82250e-07	0.01353922974375478
5.82500e-07	0.013570544110716969
5.82750e-07	0.013598226476832674
5.83000e-07	0.013625908842948379
5.83250e-07	0.013653591209064071
5.83500e-07	0.01367724523012293
5.83750e-07	0.013699925542518027
5.84000e-07	0.013722605854913122
5.84250e-07	0.013745286167308218
5.84500e-07	0.013767966479703313
5.84750e-07	0.013787011098287293
5.85000e-07	0.013805176917634198
5.85250e-07	0.013823342736981103
5.85500e-07	0.013841508556328009
5.85750e-07	0.013859674375674914
5.86000e-07	0.013874362875896329
5.86250e-07	0.013888210858309213
5.86500e-07	0.013902058840722103
5.86750e-07	0.013915906823134993
5.87000e-07	0.013929754805547883
5.87250e-07	0.013943602787960774
5.87500e-07	0.013957450770373657
5.87750e-07	0.013971298752786548
5.88000e-07	0.013985146735199438
5.88250e-07	0.013997856675354086
5.88500e-07	0.014007977504823367
5.88750e-07	0.014018098334292645
5.89000e-07	0.01402821916376192
5.89250e-07	0.0140383399932312
5.89500e-07	0.01404846082270048
5.89750e-07	0.01405858165216976
5.90000e-07	0.014068702481639038
5.90250e-07	0.014078823311108319
5.90500e-07	0.014088944140577594
5.90750e-07	0.014096904477705277
5.91000e-07	0.01410434259290774
5.91250e-07	0.014111780708110203
5.91500e-07	0.014119218823312667
5.91750e-07	0.014126656938515126
5.92000e-07	0.01413409505371759
5.92250e-07	0.014139942018459436
5.92500e-07	0.014142169025655935
5.92750e-07	0.014144396032852436
5.93000e-07	0.014146623040048935
5.93250e-07	0.014148850047245434
5.93500e-07	0.014151077054441933
5.93750e-07	0.014153304061638434
5.94000e-07	0.014150062870638058
5.94250e-07	0.014145499937859251
5.94500e-07	0.014140937005080444
5.94750e-07	0.014136374072301637
5.95000e-07	0.01413181113952283
5.95250e-07	0.014127248206744023
5.95500e-07	0.014122685273965216
5.95750e-07	0.014118122341186408
5.96000e-07	0.014111960488642553
5.96250e-07	0.014102161002945087
5.96500e-07	0.014092361517247621
5.96750e-07	0.014082562031550156
5.97000e-07	0.01407276254585269
5.97250e-07	0.014062963060155224
5.97500e-07	0.014053163574457763
5.97750e-07	0.014043364088760299
5.98000e-07	0.014033564603062832
5.98250e-07	0.014022778916591159
5.98500e-07	0.014011754851275435
5.98750e-07	0.014000730785959717
5.99000e-07	0.013990194989957648
5.99250e-07	0.013979777215638
5.99500e-07	0.01396935944131835
5.99750e-07	0.013960007209146578
6.00000e-07	0.013950912533764601
6.00250e-07	0.013941817858382626
6.00500e-07	0.013934502253372371
6.00750e-07	0.013927616675137382
6.01000e-07	0.013920731096902391
6.01250e-07	0.01391818676731002
6.01500e-07	0.013916691779657167
6.01750e-07	0.013915196792004316
6.02000e-07	0.013913701804351464
6.02250e-07	0.013912206816698613
6.02500e-07	0.01391071182904576
6.02750e-07	0.01391181745585483
6.03000e-07	0.013918839628067427
6.03250e-07	0.013925861800280027
6.03500e-07	0.013932883972492628
6.03750e-07	0.013939906144705229
6.04000e-07	0.013946928316917831
6.04250e-07	0.013953950489130432
6.04500e-07	0.01396855388227338
6.04750e-07	0.013984989765036237
6.05000e-07	0.014001425647799095
6.05250e-07	0.014017861530561953
6.05500e-07	0.014034297413324811
6.05750e-07	0.014050733296087671
6.06000e-07	0.014067169178850522
6.06250e-07	0.01408360506161338
6.06500e-07	0.014100040944376238
6.06750e-07	0.014118302112938875
6.07000e-07	0.014140715910223303
6.07250e-07	0.01416312970750772
6.07500e-07	0.01418554350479215
6.07750e-07	0.014207957302076578
6.08000e-07	0.014230371099361006
6.08250e-07	0.014252784896645432
6.08500e-07	0.01427519869392986
6.08750e-07	0.014297612491214279
6.09000e-07	0.014320026288498707
6.09250e-07	0.014341865839384418
6.09500e-07	0.014363566586695534
6.09750e-07	0.014385267334006649
6.10000e-07	0.014406968081317764
6.10250e-07	0.014428668828628869
6.10500e-07	0.01444729565435
6.10750e-07	0.014465179469221311
6.11000e-07	0.014483063284092622
6.11250e-07	0.014500947098963933
6.11500e-07	0.014518830913835237
6.11750e-07	0.014532663918475412
6.12000e-07	0.014545517784297567
6.12250e-07	0.014558371650119724
6.12500e-07	0.01457122551594188
6.12750e-07	0.014584079381764037
6.13000e-07	0.014596933247586187
6.13250e-07	0.014609787113408344
6.13500e-07	0.0146226409792305
6.13750e-07	0.014635494845052655
6.14000e-07	0.014648348710874812
6.14250e-07	0.014661202576696968
6.14500e-07	0.01467405644251912
6.14750e-07	0.014686910308341275
6.15000e-07	0.014699764174163433
6.15250e-07	0.014712618039985588
6.15500e-07	0.014722347832233985
6.15750e-07	0.014731322491180178
6.16000e-07	0.014740297150126374
6.16250e-07	0.01474927180907257
6.16500e-07	0.014758246468018767
6.16750e-07	0.014767221126964963
6.17000e-07	0.01477619578591116
6.17250e-07	0.01478517044485735
6.17500e-07	0.014794145103803547
6.17750e-07	0.014803119762749744
6.18000e-07	0.01481209442169594
6.18250e-07	0.014821069080642136
6.18500e-07	0.01483004373958833
6.18750e-07	0.014839018398534526
6.19000e-07	0.014847993057480722
6.19250e-07	0.014855876073246614
6.19500e-07	0.014863495223229543
6.19750e-07	0.014871114373212473
6.20000e-07	0.014878733523195398
6.20250e-07	0.014886011972201789
6.20500e-07	0.014893208068905199
6.20750e-07	0.01490040416560861
6.21000e-07	0.01490760026231202
6.21250e-07	0.014913260235753572
6.21500e-07	0.014918548906213953
6.21750e-07	0.014923837576674336
6.22000e-07	0.014923039631376644
6.22250e-07	0.014920770463923594
6.22500e-07	0.014918501296470543
6.22750e-07	0.014916232129017494
6.23000e-07	0.014913962961564444
6.23250e-07	0.014911693794111393
6.23500e-07	0.014900570151416687
6.23750e-07	0.014887306255309013
6.24000e-07	0.01487404235920134
6.24250e-07	0.014860778463093671
6.24500e-07	0.014847514566985997
6.24750e-07	0.014834250670878324
6.25000e-07	0.014812493092646442
6.25250e-07	0.014788682469862632
6.25500e-07	0.014764871847078824
6.25750e-07	0.014741061224295027
6.26000e-07	0.014717250601511219
6.26250e-07	0.014693439978727409
6.26500e-07	0.014667507399089357
6.26750e-07	0.01463674724725377
6.27000e-07	0.014605987095418195
6.27250e-07	0.014575226943582608
6.27500e-07	0.014544466791747021
6.27750e-07	0.014513706639911434
6.28000e-07	0.014482946488075847
6.28250e-07	0.014450926632566117
6.28500e-07	0.014418602288646377
6.28750e-07	0.014386779339559458
6.29000e-07	0.014355077584780834
6.29250e-07	0.0143245185002009
6.29500e-07	0.014294235615364703
6.29750e-07	0.014265560794135983
6.30000e-07	0.014237274664899774
6.30250e-07	0.014212077907864669
6.30500e-07	0.014187627896313289
6.30750e-07	0.014163177884761909
6.31000e-07	0.01414322030090996
6.31250e-07	0.014124348601139676
6.31500e-07	0.014105476901369384
6.31750e-07	0.014088069009500487
6.32000e-07	0.014071014940954987
6.32250e-07	0.014053960872409486
6.32500e-07	0.014038368111666488
6.32750e-07	0.014023128569937203
6.33000e-07	0.014007889028207909
6.33250e-07	0.013992649486478617
6.33500e-07	0.01397764110464607
6.33750e-07	0.013963158624689656
6.34000e-07	0.013948676144733241
6.34250e-07	0.013934193664776834
6.34500e-07	0.013919711184820419
6.34750e-07	0.013905258231672973
6.35000e-07	0.013890812415577915
6.35250e-07	0.013876366599482857
6.35500e-07	0.013861920783387804
6.35750e-07	0.013847474967292746
6.36000e-07	0.013833029151197688
6.36250e-07	0.013818617590555218
6.36500e-07	0.0138042839630103
6.36750e-07	0.013789950335465383
6.37000e-07	0.013775616707920471
6.37250e-07	0.013761283080375554
6.37500e-07	0.013746949452830637
6.37750e-07	0.01373261582528572
6.38000e-07	0.013719558509764198
6.38250e-07	0.013706809697128463
6.38500e-07	0.013694060884492725
6.38750e-07	0.013681312071856985
6.39000e-07	0.013668563259221245
6.39250e-07	0.013655814446585507
6.39500e-07	0.013643065633949767
6.39750e-07	0.013631837926738445
6.40000e-07	0.013624070820642495
6.40250e-07	0.013616303714546547
6.40500e-07	0.013608536608450596
6.40750e-07	0.013600769502354646
6.41000e-07	0.013593002396258696
6.41250e-07	0.013585235290162749
6.41500e-07	0.013577468184066799
6.41750e-07	0.013577690401133935
6.42000e-07	0.013579843751972527
6.42250e-07	0.013581997102811121
6.42500e-07	0.013584150453649713
6.42750e-07	0.013586303804488307
6.43000e-07	0.013588457155326899
6.43250e-07	0.013590610506165493
6.43500e-07	0.013601985578915092
6.43750e-07	0.013615589673854664
6.44000e-07	0.013629193768794231
6.44250e-07	0.013642797863733803
6.44500e-07	0.013656401958673375
6.44750e-07	0.01367000605361295
6.45000e-07	0.013683610148552522
6.45250e-07	0.013706091755359187
6.45500e-07	0.01373071918386102
6.45750e-07	0.013755346612362865
6.46000e-07	0.01377997404086471
6.46250e-07	0.013804601469366554
6.46500e-07	0.013829228897868398
6.46750e-07	0.013853856326370232
6.47000e-07	0.013878483754872077
6.47250e-07	0.013903111183373921
6.47500e-07	0.013927738611875766
6.47750e-07	0.013955569867105992
6.48000e-07	0.013984175533117564
6.48250e-07	0.014012781199129123
6.48500e-07	0.014041386865140695
6.48750e-07	0.014069992531152266
6.49000e-07	0.01409859819716384
6.49250e-07	0.014127203863175411
6.49500e-07	0.014155809529186983
6.49750e-07	0.014184415195198542
6.50000e-07	0.014213020861210113
6.50250e-07	0.014235650083468623
6.50500e-07	0.014256834713722358
6.50750e-07	0.014278019343976094
6.51000e-07	0.01429920397422982
6.51250e-07	0.014320388604483555
6.51500e-07	0.01434157323473729
6.51750e-07	0.014362757864991025
6.52000e-07	0.01438394249524476
6.52250e-07	0.014401850331924145
6.52500e-07	0.014412303277366902
6.52750e-07	0.014422756222809661
6.53000e-07	0.014433209168252423
6.53250e-07	0.014443662113695185
6.53500e-07	0.014454115059137945
6.53750e-07	0.014464568004580706
6.54000e-07	0.014475020950023463
6.54250e-07	0.014485473895466224
6.54500e-07	0.014487343377857991
6.54750e-07	0.014487138114362546
6.55000e-07	0.014486932850867102
6.55250e-07	0.014486727587371656
6.55500e-07	0.01448652232387621
6.55750e-07	0.014486317060380765
6.56000e-07	0.014486111796885321
6.56250e-07	0.014485906533389875
6.56500e-07	0.01448570126989443
6.56750e-07	0.014485496006398984
6.57000e-07	0.014485290742903539
6.57250e-07	0.014485085479408095
6.57500e-07	0.014483474958374836
6.57750e-07	0.014478667396738865
6.58000e-07	0.014473859835102895
6.58250e-07	0.014469052273466924
6.58500e-07	0.014464244711830953
6.58750e-07	0.014459437150194982
6.59000e-07	0.014454629588559012
6.59250e-07	0.014449822026923041
6.59500e-07	0.014445014465287072
6.59750e-07	0.0144402069036511
6.60000e-07	0.01443539934201513
6.60250e-07	0.014430591780379158
6.60500e-07	0.014425784218743187
6.60750e-07	0.014422883292524776
6.61000e-07	0.014420443227379285
6.61250e-07	0.014418003162233793
6.61500e-07	0.014414891570525857
6.61750e-07	0.014411617661235226
6.62000e-07	0.014408343751944594
6.62250e-07	0.014401492739622077
6.62500e-07	0.01439377709029238
6.62750e-07	0.01438606144096268
6.63000e-07	0.014378345791632982
6.63250e-07	0.014370630142303283
6.63500e-07	0.014362914492973585
6.63750e-07	0.014353054574809114
6.64000e-07	0.014338316323425627
6.64250e-07	0.014323578072042138
6.64500e-07	0.014308839820658649
6.64750e-07	0.01429410156927516
6.65000e-07	0.014279363317891673
6.65250e-07	0.014264625066508189
6.65500e-07	0.01424430431376414
6.65750e-07	0.014222634190530626
6.66000e-07	0.01420096406729711
6.66250e-07	0.014179293944063595
6.66500e-07	0.014157623820830089
6.66750e-07	0.014135953697596574
6.67000e-07	0.014114283574363059
6.67250e-07	0.014092613451129544
6.67500e-07	0.01407034963362807
6.67750e-07	0.014046735127993482
6.68000e-07	0.014023120622358904
6.68250e-07	0.013999506116724316
6.68500e-07	0.013975891611089728
6.68750e-07	0.01395227710545514
6.69000e-07	0.013928662599820552
6.69250e-07	0.013905048094185964
6.69500e-07	0.013881433588551387
6.69750e-07	0.013860541602371603
6.70000e-07	0.013840307688115507
6.70250e-07	0.013820073773859411
6.70500e-07	0.01380642061990732
6.70750e-07	0.013794358129920905
6.71000e-07	0.013782295639934486
6.71250e-07	0.013770233149948064
6.71500e-07	0.013758170659961644
6.71750e-07	0.013746108169975225
6.72000e-07	0.013734045679988805
6.72250e-07	0.01372198319000239
6.72500e-07	0.013713722103069342
6.72750e-07	0.01371410942369302
6.73000e-07	0.013714496744316698
6.73250e-07	0.013714884064940376
6.73500e-07	0.013715271385564056
6.73750e-07	0.013715658706187734
6.74000e-07	0.013716046026811412
6.74250e-07	0.01371643334743509
6.74500e-07	0.013716820668058767
6.74750e-07	0.013726584885323767
6.75000e-07	0.01373861563273243
6.75250e-07	0.0137506463801411
6.75500e-07	0.013762677127549767
6.75750e-07	0.013774707874958434
6.76000e-07	0.013786738622367104
6.76250e-07	0.013798769369775771
6.76500e-07	0.013810800117184434
6.76750e-07	0.013822830864593103
6.77000e-07	0.01383486161200177
6.77250e-07	0.013846892359410438
6.77500e-07	0.013858923106819108
6.77750e-07	0.013874741379044472
6.78000e-07	0.01389147515023452
6.78250e-07	0.013908208921424567
6.78500e-07	0.013924942692614614
6.78750e-07	0.013941676463804661
6.79000e-07	0.013958410234994709
6.79250e-07	0.013975144006184749
6.79500e-07	0.013991877777374796
6.79750e-07	0.014008611548564844
6.80000e-07	0.01402534531975489
6.80250e-07	0.014042079090944938
6.80500e-07	0.014058812862134985
6.80750e-07	0.014073464488465151
6.81000e-07	0.01408761283057785
6.81250e-07	0.014101761172690552
6.81500e-07	0.014118038599019826
6.81750e-07	0.014134830655481002
6.82000e-07	0.01415162271194217
6.82250e-07	0.014174841672621495
6.82500e-07	0.014199614108048207
6.82750e-07	0.01422438654347492
6.83000e-07	0.014249158978901631
6.83250e-07	0.014273931414328343
6.83500e-07	0.01430772040640768
6.83750e-07	0.01434368882929739
6.84000e-07	0.014379657252187098
6.84250e-07	0.014415625675076808
6.84500e-07	0.014451594097966517
6.84750e-07	0.01449814505373724
6.85000e-07	0.014547253959188858
6.85250e-07	0.014596362864640496
6.85500e-07	0.014645471770092134
6.85750e-07	0.014694580675543774
6.86000e-07	0.014743689580995412
6.86250e-07	0.01479279848644703
6.86500e-07	0.014849844848724316
6.86750e-07	0.014908809807937028
6.87000e-07	0.01496777476714974
6.87250e-07	0.015026739726362452
6.87500e-07	0.015085704685575163
6.87750e-07	0.015144669644787851
6.88000e-07	0.015203634604000562
6.88250e-07	0.015263995011267786
6.88500e-07	0.015324692718304916
6.88750e-07	0.015385390425342049
6.89000e-07	0.015444001299833887
6.89250e-07	0.015502107757027556
6.89500e-07	0.015560214214221248
6.89750e-07	0.015614630525450104
6.90000e-07	0.015668154875576688
6.90250e-07	0.015721679225703274
6.90500e-07	0.01576172904284063
6.90750e-07	0.015798521872473388
6.91000e-07	0.015835314702106147
6.91250e-07	0.015872107531738906
6.91500e-07	0.015908900361371665
6.91750e-07	0.015945693191004424
6.92000e-07	0.01598248602063717
6.92250e-07	0.01601927885026993
6.92500e-07	0.016056071679902688
6.92750e-07	0.016092864509535447
6.93000e-07	0.0161110435528943
6.93250e-07	0.01612472337766379
6.93500e-07	0.016138403202433284
6.93750e-07	0.016152083027202783
6.94000e-07	0.01616576285197228
6.94250e-07	0.016179442676741776
6.94500e-07	0.016193122501511274
6.94750e-07	0.016206802326280766
6.95000e-07	0.01622048215105026
6.95250e-07	0.01623416197581976
6.95500e-07	0.01623445703854229
6.95750e-07	0.016231516812681944
6.96000e-07	0.016228576586821596
6.96250e-07	0.016225636360961252
6.96500e-07	0.016222696135100904
6.96750e-07	0.016219755909240557
6.97000e-07	0.016216815683380213
6.97250e-07	0.016213875457519865
6.97500e-07	0.01621093523165952
6.97750e-07	0.016207995005799173
6.98000e-07	0.016205054779938825
6.98250e-07	0.016200768725081232
6.98500e-07	0.01619342083292123
6.98750e-07	0.01618607294076123
6.99000e-07	0.016178725048601232
6.99250e-07	0.01617137715644123
6.99500e-07	0.01616402926428123
6.99750e-07	0.01615668137212123
7.00000e-07	0.016149333479961225
7.00250e-07	0.016141985587801225
7.00500e-07	0.016134637695641225
7.00750e-07	0.016127289803481226
7.01000e-07	0.016119941911321226
7.01250e-07	0.016117914139211136
7.01500e-07	0.016117172316271966
7.01750e-07	0.0161164304933328
7.02000e-07	0.01611568867039363
