Time(s)	Current(A)
1.27500e-05	0.005546801275489605
1.27503e-05	0.005582256988455322
1.27505e-05	0.005612342741395643
1.27508e-05	0.005635205158398162
1.27510e-05	0.005658067575400526
1.27513e-05	0.005678569473747198
1.27515e-05	0.005690417759541496
1.27518e-05	0.005700615714854894
1.27520e-05	0.0057047635927716025
1.27523e-05	0.0057072927765732
1.27525e-05	0.005703887861240418
1.27528e-05	0.005698895139663807
1.27530e-05	0.0056880815532499105
1.27533e-05	0.005675877813028866
1.27535e-05	0.005658577797713452
1.27538e-05	0.005640133334371592
1.27540e-05	0.005617493348244131
1.27543e-05	0.005593843992389973
1.27545e-05	0.005566494308002528
1.27548e-05	0.00553827003279084
1.27550e-05	0.005506839525712073
1.27553e-05	0.005474773596738043
1.27555e-05	0.005440378224243221
1.27558e-05	0.005405616488660772
1.27560e-05	0.00536951167358001
1.27563e-05	0.005333240493131292
1.27565e-05	0.005296359420684588
1.27568e-05	0.00525951158139182
1.27570e-05	0.005222785574154038
1.27573e-05	0.005186357767108071
1.27575e-05	0.005151023155796516
1.27577e-05	0.0051162705737757145
1.27580e-05	0.005083651699091738
1.27583e-05	0.005052109941199196
1.27585e-05	0.005024516871178917
1.27588e-05	0.004996923801158826
1.27590e-05	0.004970324399114491
1.27593e-05	0.004947622650624252
1.27595e-05	0.004925908157457928
1.27598e-05	0.0049043873882343575
1.27600e-05	0.004882988673507058
1.27603e-05	0.004862037408038006
1.27605e-05	0.004841394472385835
1.27608e-05	0.004821881867463779
1.27610e-05	0.004802674648280666
1.27613e-05	0.0047845869668977714
1.27615e-05	0.004766377330817874
1.27618e-05	0.0047477206113420165
1.27620e-05	0.004729063891866032
1.27623e-05	0.004710416403821694
1.27625e-05	0.004691802758014911
1.27628e-05	0.004673189112208003
1.27630e-05	0.004654575466401094
1.27633e-05	0.004635949420536128
1.27635e-05	0.004617277916314271
1.27638e-05	0.004598606412092415
1.27640e-05	0.004579934907870685
1.27643e-05	0.004561259020797947
1.27645e-05	0.004542567066284557
1.27648e-05	0.004523875111771292
1.27650e-05	0.004505183157257901
1.27653e-05	0.004486491202744511
1.27655e-05	0.004468366049588828
1.27658e-05	0.00445046758190901
1.27660e-05	0.004432569114229192
1.27662e-05	0.004414670646549494
1.27665e-05	0.004397098622252496
1.27668e-05	0.004380723332643462
1.27670e-05	0.004364348043034427
1.27673e-05	0.004348383527183879
1.27675e-05	0.004333924899433403
1.27678e-05	0.004319466271682926
1.27680e-05	0.0043054125960673515
1.27683e-05	0.004292843466600341
1.27685e-05	0.004280728323971715
1.27688e-05	0.004270277487700739
1.27690e-05	0.004260448201227311
1.27693e-05	0.004252897503453616
1.27695e-05	0.004246202085346866
1.27698e-05	0.004242642104805386
1.27700e-05	0.00424020659580422
1.27703e-05	0.004241893376207275
1.27705e-05	0.0042435801566103395
1.27708e-05	0.004246743448070828
1.27710e-05	0.004255319598522157
1.27713e-05	0.004263895748973545
1.27715e-05	0.004272471899424932
1.27718e-05	0.004286595841500579
1.27720e-05	0.004302938556993882
1.27723e-05	0.004319281272487183
1.27725e-05	0.0043366135261674035
1.27728e-05	0.004357971306024079
1.27730e-05	0.004381171505938185
1.27733e-05	0.004406158979925459
1.27735e-05	0.004432911741077519
1.27738e-05	0.004461364960206496
1.27740e-05	0.004491384791895238
1.27743e-05	0.004522811348059107
1.27745e-05	0.004555485838198931
1.27747e-05	0.0045892494718155034
1.27750e-05	0.004623948148975581
1.27753e-05	0.004659452051008001
1.27755e-05	0.004695652944278209
1.27758e-05	0.004732415419504271
1.27760e-05	0.004769559764147428
1.27763e-05	0.004806892229776894
1.27765e-05	0.004844217637848792
1.27768e-05	0.0048813420736695855
1.27770e-05	0.004918073884798759
1.27773e-05	0.004954236885623338
1.27775e-05	0.0049896685599429575
1.27778e-05	0.005024189161471512
1.27780e-05	0.005057591137997335
1.27783e-05	0.005089658688746332
1.27785e-05	0.005119967449258659
1.27788e-05	0.005148162076051734
1.27790e-05	0.005175738097125755
1.27793e-05	0.005200730657367134
1.27795e-05	0.005224342645273019
1.27798e-05	0.005246923760534561
1.27800e-05	0.0052683586108211965
1.27803e-05	0.005288441417989425
1.27805e-05	0.005307948233723025
1.27808e-05	0.005325343476771693
1.27810e-05	0.0053421538961509
1.27813e-05	0.005356820364055944
1.27815e-05	0.005371098363337624
1.27818e-05	0.005383952244681736
1.27820e-05	0.0053963391153841935
1.27823e-05	0.005407013934734436
1.27825e-05	0.005417688754084607
1.27828e-05	0.005427745549878059
1.27830e-05	0.0054355366840964335
1.27832e-05	0.005443327818314756
1.27835e-05	0.005450696502261442
1.27838e-05	0.005456516492250644
1.27840e-05	0.005462336482239845
1.27843e-05	0.005467790874269663
1.27845e-05	0.005471904991743027
1.27848e-05	0.005476019109216391
1.27850e-05	0.0054798051865189365
1.27853e-05	0.00548238867534092
1.27855e-05	0.005484972164162903
1.27858e-05	0.005487390884405022
1.27860e-05	0.0054892055664416605
1.27863e-05	0.005491020248478299
1.27865e-05	0.005492704426348012
1.27868e-05	0.005493910178641281
1.27870e-05	0.00549511593093455
1.27873e-05	0.0054962904127927115
1.27875e-05	0.005497350257882624
1.27878e-05	0.005498410102972536
1.27880e-05	0.005499532671897949
1.27883e-05	0.005500885185106935
1.27885e-05	0.005502290542024594
1.27888e-05	0.005503931239177013
1.27890e-05	0.005505804839199499
1.27893e-05	0.005508148006056908
1.27895e-05	0.00551138738302394
1.27898e-05	0.005515829665159075
1.27900e-05	0.005521643835244941
1.27903e-05	0.0055288592568917255
1.27905e-05	0.005536662163521305
1.27908e-05	0.00554661877794609
1.27910e-05	0.005556575392370808
1.27913e-05	0.005567279855884081
1.27915e-05	0.00558072591868735
1.27917e-05	0.005594171981490527
1.27920e-05	0.00561008961753686
1.27923e-05	0.005626995729969339
1.27925e-05	0.0056443523761853884
1.27928e-05	0.005663585817065825
1.27930e-05	0.0056838615064719
1.27933e-05	0.005705163149551087
1.27935e-05	0.00572755031678982
1.27938e-05	0.0057510350118783774
1.27940e-05	0.005775526396090028
1.27943e-05	0.005800895647511518
1.27945e-05	0.0058270130462425565
1.27948e-05	0.005853749703905649
1.27950e-05	0.00588098528152471
1.27953e-05	0.005908643213108377
1.27955e-05	0.005936693828850987
1.27958e-05	0.005965078320032164
1.27960e-05	0.005993672753256674
1.27963e-05	0.006022329547231265
1.27965e-05	0.00605090225137799
1.27968e-05	0.0060792422532823425
1.27970e-05	0.006107207793137429
1.27973e-05	0.0061346850512251855
1.27975e-05	0.00616158821252905
1.27978e-05	0.006187814065066022
1.27980e-05	0.006213218452818018
1.27983e-05	0.006237642585286408
1.27985e-05	0.006260927671972045
1.27988e-05	0.0062829150221750795
1.27990e-05	0.006303451700218206
1.27993e-05	0.006322419596661503
1.27995e-05	0.006339765827157165
1.27998e-05	0.0063554722971736685
1.28000e-05	0.006369327452546624
1.28002e-05	0.006381174574187583
1.28005e-05	0.006391975364734744
1.28008e-05	0.006398940327132061
1.28010e-05	0.006405905289529378
1.28013e-05	0.006412870251926646
1.28015e-05	0.006415464362340985
1.28018e-05	0.006416310402376984
1.28020e-05	0.006417156442412977
1.28023e-05	0.006416884345786872
1.28025e-05	0.006412513183282894
1.28028e-05	0.006408142020778947
1.28030e-05	0.00640298473949683
1.28033e-05	0.006394945563032749
1.28035e-05	0.006386359237120832
1.28038e-05	0.0063757670726490865
1.28040e-05	0.0063647088456289325
1.28043e-05	0.006351942042945547
1.28045e-05	0.006338788318527572
1.28048e-05	0.006324216147033207
1.28050e-05	0.006309340785384343
1.28053e-05	0.006293353934899137
1.28055e-05	0.006277165789304706
1.28058e-05	0.006260239700003115
1.28060e-05	0.0062432190509017155
1.28063e-05	0.006225851747530286
1.28065e-05	0.006208494972980998
1.28068e-05	0.0061911767968753795
1.28070e-05	0.006173977182291696
1.28073e-05	0.006157212211795513
1.28075e-05	0.006140685561934211
1.28078e-05	0.006125032590592005
1.28080e-05	0.006109740144079842
1.28083e-05	0.006095769374138035
1.28085e-05	0.006082145007430751
1.28087e-05	0.00607006160260982
1.28090e-05	0.006059191038229477
1.28093e-05	0.006049148956473652
1.28095e-05	0.00603905110297962
1.28098e-05	0.006028236692447952
1.28100e-05	0.0060165838891194715
1.28103e-05	0.006004215459667291
1.28105e-05	0.00599170022550245
1.28108e-05	0.0059786468082966395
1.28110e-05	0.005965516745258479
1.28113e-05	0.005951942129195541
1.28115e-05	0.005937264344733673
1.28118e-05	0.005920740664394416
1.28120e-05	0.005904216984055272
1.28123e-05	0.0058871687920673205
1.28125e-05	0.005868197751222403
1.28128e-05	0.005849226710377614
1.28130e-05	0.005829184867344075
1.28133e-05	0.005808714769683057
1.28135e-05	0.005787752382228207
1.28138e-05	0.005764985270569157
1.28140e-05	0.005742218158910107
1.28143e-05	0.005719105276078762
1.28145e-05	0.005694724803279619
1.28148e-05	0.005670344330480477
1.28150e-05	0.005645846194352953
1.28153e-05	0.005620916706896076
1.28155e-05	0.005595987219439197
1.28158e-05	0.005570987889133103
1.28160e-05	0.0055457325163853245
1.28163e-05	0.0055205763441028306
1.28165e-05	0.005495783838674804
1.28168e-05	0.005471239134811293
1.28170e-05	0.0054476028663594835
1.28172e-05	0.00542428286176545
1.28175e-05	0.005402122273933118
1.28178e-05	0.005380355593783339
1.28180e-05	0.005360032971052011
1.28183e-05	0.005340256599575035
1.28185e-05	0.005322482773899786
1.28188e-05	0.00530541043722899
1.28190e-05	0.005290909744742325
1.28193e-05	0.005277221617837306
1.28195e-05	0.005266512339551803
1.28198e-05	0.005256875237991939
1.28200e-05	0.005251168714136399
1.28203e-05	0.005245462190280858
1.28205e-05	0.005241103089512313
1.28208e-05	0.005241683613917158
1.28210e-05	0.005242264138322002
1.28213e-05	0.005244205259316233
1.28215e-05	0.005251134299271403
1.28218e-05	0.005258063339226573
1.28220e-05	0.005265856041984983
1.28223e-05	0.005277225888076615
1.28225e-05	0.005290501052040296
1.28228e-05	0.005305624257537577
1.28230e-05	0.005322536831040679
1.28233e-05	0.005341169687592317
1.28235e-05	0.005361429561183237
1.28238e-05	0.005383204526635471
1.28240e-05	0.005406378734087606
1.28243e-05	0.005430836799339478
1.28245e-05	0.005456463903651981
1.28248e-05	0.005483145660611778
1.28250e-05	0.005510765588226816
1.28253e-05	0.005539200651706785
1.28255e-05	0.005568314012685695
1.28257e-05	0.005597956227019345
1.28260e-05	0.005627975056802205
1.28263e-05	0.005658219794040492
1.28265e-05	0.005688538732953807
1.28268e-05	0.0057187807332220895
1.28270e-05	0.005748794388257344
1.28273e-05	0.005778423135861776
1.28275e-05	0.005807502530724953
1.28278e-05	0.005835859147249865
1.28280e-05	0.005863318927914123
1.28283e-05	0.005889708081258127
1.28285e-05	0.00591485254976004
1.28288e-05	0.0059385793403543405
1.28290e-05	0.005960845963662091
1.28293e-05	0.005982300419982498
1.28295e-05	0.006004364933129791
1.28298e-05	0.006028094657831377
1.28300e-05	0.00605360702612599
1.28303e-05	0.006080661091529411
1.28305e-05	0.006109015175833329
1.28308e-05	0.0061384280000270665
1.28310e-05	0.0061687402865509364
1.28313e-05	0.006200226330276084
1.28315e-05	0.006233907777563415
1.28318e-05	0.0062704884984798055
1.28320e-05	0.006307799899683874
1.28323e-05	0.0063481959431082105
1.28325e-05	0.006390706553617894
1.28328e-05	0.0064355129483436285
1.28330e-05	0.0064803193430696664
1.28333e-05	0.0065261575623530525
1.28335e-05	0.006575778429128229
1.28338e-05	0.006625399295903741
1.28340e-05	0.006675732030806475
1.28342e-05	0.0067289258538819185
1.28345e-05	0.006783285641892564
1.28348e-05	0.006838541243075144
1.28350e-05	0.0068939915526155205
1.28353e-05	0.006950155658969257
1.28355e-05	0.00700651891474827
1.28358e-05	0.00706361224820121
1.28360e-05	0.007120736818822387
1.28363e-05	0.007177903449994928
1.28365e-05	0.007234555565979821
1.28368e-05	0.0072902952220701795
1.28370e-05	0.007345526400927252
1.28373e-05	0.007398893512759156
1.28375e-05	0.007451820410051419
1.28378e-05	0.007502775509996608
1.28380e-05	0.007551988028239423
1.28383e-05	0.007599120726208286
1.28385e-05	0.007643185441355979
1.28388e-05	0.00768275749277182
1.28390e-05	0.007722329544187392
1.28393e-05	0.007760687703928084
1.28395e-05	0.0077939146818308555
1.28398e-05	0.007824644834333304
1.28400e-05	0.007854413969854418
1.28403e-05	0.007880660036990944
1.28405e-05	0.00790581420041529
1.28408e-05	0.007926965467407383
1.28410e-05	0.007947253670392403
1.28413e-05	0.007963878902267947
1.28415e-05	0.007978050380036291
1.28418e-05	0.007989932659104523
1.28420e-05	0.008001200673722722
1.28423e-05	0.008009796453081268
1.28425e-05	0.008016422683558302
1.28427e-05	0.008021041979322326
1.28430e-05	0.008023642236472511
1.28433e-05	0.008024337814672235
1.28435e-05	0.008023407246041342
1.28438e-05	0.008021095995191995
1.28440e-05	0.008017498722030317
1.28443e-05	0.008012650617215603
1.28445e-05	0.008006585940084689
1.28448e-05	0.007999338617447197
1.28450e-05	0.00799095861025307
1.28453e-05	0.007981576839904128
1.28455e-05	0.007971425604918361
1.28458e-05	0.007960716312227651
1.28460e-05	0.007949567437751265
1.28463e-05	0.007938057412183838
1.28465e-05	0.00792626599673985
1.28468e-05	0.007914274149813345
1.28470e-05	0.007902169350702447
1.28473e-05	0.007890092763711
1.28475e-05	0.007878246752106327
1.28478e-05	0.007866823299209241
1.28480e-05	0.007855953454411138
1.28483e-05	0.007845744186879671
1.28485e-05	0.007836304594284426
1.28488e-05	0.007827741046997499
1.28490e-05	0.007820067634204009
1.28493e-05	0.007812798381658543
1.28495e-05	0.00780489267363407
1.28498e-05	0.007795580596913043
1.28500e-05	0.007784772688559133
1.28503e-05	0.007772641675574975
1.28505e-05	0.007759358655251627
1.28508e-05	0.007745095157206139
1.28510e-05	0.007729963530300007
1.28512e-05	0.007713763492233818
1.28515e-05	0.0076957337577914986
1.28518e-05	0.007675354091552475
1.28520e-05	0.007654379721518757
1.28523e-05	0.0076308892553572155
1.28525e-05	0.007605634036897559
1.28528e-05	0.007578423895675877
1.28530e-05	0.007551213754454379
1.28533e-05	0.00752314859969965
1.28535e-05	0.007491948983009173
1.28538e-05	0.0074607493663189075
1.28540e-05	0.007428973275832085
1.28543e-05	0.007394875363670042
1.28545e-05	0.007359801990499018
1.28548e-05	0.0073239544532794935
1.28550e-05	0.007287928973978108
1.28553e-05	0.007251251162683563
1.28555e-05	0.007214404191641857
1.28558e-05	0.007176937084465076
1.28560e-05	0.007139436744134732
1.28563e-05	0.007101864770777416
1.28565e-05	0.007064580717049879
1.28568e-05	0.007027835707520501
1.28570e-05	0.006991868391437757
1.28573e-05	0.006956839185514086
1.28575e-05	0.006922823361232113
1.28578e-05	0.006889938202475722
1.28580e-05	0.006858405531927712
1.28583e-05	0.006828487250830265
1.28585e-05	0.0068004457925505005
1.28588e-05	0.006774542459535048
1.28590e-05	0.006750923319625174
1.28593e-05	0.006729118058827738
1.28595e-05	0.0067079506864981125
1.28597e-05	0.006686533282041881
1.28600e-05	0.006664784001424505
1.28603e-05	0.006642933712845373
1.28605e-05	0.006621270802212907
1.28608e-05	0.006600064121527769
1.28610e-05	0.0065790090359194794
1.28613e-05	0.006558456401924408
1.28615e-05	0.006537427512588054
1.28618e-05	0.0065153689045776425
1.28620e-05	0.006493066337274475
1.28623e-05	0.006469767425402975
1.28625e-05	0.006446031679106249
1.28628e-05	0.006422065256801738
1.28630e-05	0.006398081619124921
1.28633e-05	0.006373945749508559
1.28635e-05	0.006349252079914309
1.28638e-05	0.006323711256797584
1.28640e-05	0.006297991244108134
1.28643e-05	0.006271551851812688
1.28645e-05	0.006244874747353076
1.28648e-05	0.006218165812896966
1.28650e-05	0.006191506728171564
1.28653e-05	0.006165030391528644
1.28655e-05	0.006138527258784053
1.28658e-05	0.006111925892085311
1.28660e-05	0.006085357459142771
1.28663e-05	0.006058986206902514
1.28665e-05	0.006033092059016335
1.28668e-05	0.006007919573977867
1.28670e-05	0.005983095637857111
1.28673e-05	0.005959549474864395
1.28675e-05	0.00593626179195696
1.28678e-05	0.005914119793230791
1.28680e-05	0.0058929421516634535
1.28682e-05	0.005872915298033505
1.28685e-05	0.005854585639258101
1.28688e-05	0.005838743842263892
1.28690e-05	0.0058229020452696826
1.28693e-05	0.00580773948204362
1.28695e-05	0.005795459885460039
1.28698e-05	0.005784620687675377
1.28700e-05	0.0057741873734838715
1.28703e-05	0.005765535928977319
1.28705e-05	0.005758437840913693
1.28708e-05	0.005753084365924195
1.28710e-05	0.005748221953196696
1.28713e-05	0.00574544718644203
1.28715e-05	0.0057439733050927855
1.28718e-05	0.005743762596039289
1.28720e-05	0.00574486039252412
1.28723e-05	0.005746445558698355
1.28725e-05	0.005749817412079762
1.28728e-05	0.005753684070195509
1.28730e-05	0.005759364672239338
1.28733e-05	0.005765464031980914
1.28735e-05	0.0057730985487863245
1.28738e-05	0.005781062752449246
1.28740e-05	0.005790235581317278
1.28743e-05	0.0057997124486328855
1.28745e-05	0.005810303914612628
1.28748e-05	0.005821173870429283
1.28750e-05	0.00583306476423133
1.28753e-05	0.005845156504045345
1.28755e-05	0.005857984541188099
1.28758e-05	0.005870927547079116
1.28760e-05	0.005884292026024758
1.28763e-05	0.005897725366460333
1.28765e-05	0.005911411151694307
1.28767e-05	0.005925119691159615
1.28770e-05	0.005938911647167096
1.28773e-05	0.005952647715588619
1.28775e-05	0.005966178901275207
1.28778e-05	0.005979570318097182
1.28780e-05	0.005992449345150896
1.28783e-05	0.0060051866073548765
1.28785e-05	0.006017290491192026
1.28788e-05	0.006028849515930223
1.28790e-05	0.006039773107053519
1.28793e-05	0.0060498495495891706
1.28795e-05	0.0060587470286958545
1.28798e-05	0.006066079395727256
1.28800e-05	0.006071703187094033
1.28803e-05	0.006076580247126422
1.28805e-05	0.006078719805521182
1.28808e-05	0.006080859363915926
1.28810e-05	0.006082246519051585
1.28813e-05	0.006080875379391102
1.28815e-05	0.006078816323427106
1.28818e-05	0.006074235380513201
1.28820e-05	0.00606915648918837
1.28823e-05	0.006061945246555068
1.28825e-05	0.006053320757924986
1.28828e-05	0.006043370301557418
1.28830e-05	0.006032172406505988
1.28833e-05	0.006019756972834319
1.28835e-05	0.006006108135546849
1.28838e-05	0.005991247650470927
1.28840e-05	0.005975273773166902
1.28843e-05	0.005958310569135818
1.28845e-05	0.005940482835602799
1.28848e-05	0.005921915469591859
1.28850e-05	0.005902727746033766
1.28853e-05	0.005883008205802769
1.28855e-05	0.0058628165870892235
1.28858e-05	0.005842236644107027
1.28860e-05	0.005821399261630288
1.28863e-05	0.005800452519948513
1.28865e-05	0.005779544499350781
1.28868e-05	0.005758823080528077
1.28870e-05	0.005738432119071725
1.28873e-05	0.005718497708567903
1.28875e-05	0.0056991270844528935
1.28878e-05	0.005680442284348043
1.28880e-05	0.005662595380307101
1.28883e-05	0.005645748355993934
1.28885e-05	0.005630064259323444
1.28888e-05	0.005615705073959161
1.28890e-05	0.005602827560462577
1.28893e-05	0.005591548697352482
1.28895e-05	0.005581919506331307
1.28898e-05	0.005573956019687208
1.28900e-05	0.005567871388783654
1.28903e-05	0.005563827353334016
1.28905e-05	0.005560846999789428
1.28908e-05	0.005561766082124489
1.28910e-05	0.005562685164459555
1.28913e-05	0.005563604246794622
1.28915e-05	0.005568961657460726
1.28918e-05	0.0055760941248753915
1.28920e-05	0.0055832265922900574
1.28923e-05	0.005591493891354007
1.28925e-05	0.005603921459789676
1.28928e-05	0.005616349028225345
1.28930e-05	0.005629574940846086
1.28933e-05	0.005645727566749573
1.28935e-05	0.005662435076541987
1.28938e-05	0.005681176779202777
1.28940e-05	0.005700391081262244
1.28943e-05	0.005721337922949208
1.28945e-05	0.005742677374927353
1.28948e-05	0.005765456128118431
1.28950e-05	0.005788542861827851
1.28953e-05	0.0058127586457517155
1.28955e-05	0.005837178219765538
1.28958e-05	0.005862344884038085
1.28960e-05	0.005887607305701166
1.28963e-05	0.005913220771978711
1.28965e-05	0.005938823559735547
1.28968e-05	0.005964387200255524
1.28970e-05	0.005989830632565956
1.28973e-05	0.0060148333840653705
1.28975e-05	0.0060395943219563935
1.28978e-05	0.006063468776156499
1.28980e-05	0.006087084151476303
1.28983e-05	0.00610953617855708
1.28985e-05	0.006130960553113579
1.28988e-05	0.006151213485813355
1.28990e-05	0.006170310166516697
1.28993e-05	0.006189092849122287
1.28995e-05	0.0062093224576121485
1.28998e-05	0.0062322957510498435
1.29000e-05	0.006258167777152037
1.29003e-05	0.006286885350941191
1.29005e-05	0.0063183198161409
1.29008e-05	0.006350375831135206
