Time(s)	Current(A)
1.47500e-05	-0.0006817807747958943
1.47503e-05	-0.000667589533637101
1.47505e-05	-0.0006532948297641481
1.47508e-05	-0.0006383566096928522
1.47510e-05	-0.0006234183896215563
1.47513e-05	-0.00060848420335732
1.47515e-05	-0.0005935751065190344
1.47518e-05	-0.000578666009680749
1.47520e-05	-0.0005638779861743962
1.47523e-05	-0.0005498430131826019
1.47525e-05	-0.0005358080401908075
1.47528e-05	-0.0005220211691700343
1.47530e-05	-0.0005097774399300838
1.47533e-05	-0.0004975337106901332
1.47535e-05	-0.0004856090297814606
1.47538e-05	-0.00047566876200811546
1.47540e-05	-0.00046572849423477035
1.47543e-05	-0.00045589294366012525
1.47545e-05	-0.0004467087119113208
1.47548e-05	-0.0004375244801625163
1.47550e-05	-0.0004283402484137741
1.47553e-05	-0.00041915601666496965
1.47555e-05	-0.00041006459015653917
1.47558e-05	-0.0004015503926133334
1.47560e-05	-0.00039303619507007
1.47563e-05	-0.00038452199752680657
1.47565e-05	-0.00037600779998360083
1.47568e-05	-0.0003674601529691606
1.47570e-05	-0.0003587044573191353
1.47573e-05	-0.00034994876166911
1.47575e-05	-0.000341193066019144
1.47578e-05	-0.00033243737036911866
1.47580e-05	-0.0003236816747190933
1.47583e-05	-0.00031492597906912734
1.47585e-05	-0.000306170283419102
1.47588e-05	-0.00029741458776907665
1.47590e-05	-0.00028864277625548484
1.47593e-05	-0.0002798618407364934
1.47595e-05	-0.00027108090521750196
1.47598e-05	-0.00026229996969857005
1.47600e-05	-0.00025351903417957867
1.47603e-05	-0.00024473809866058723
1.47605e-05	-0.0002359571631416553
1.47608e-05	-0.00022717622762266388
1.47610e-05	-0.00021849593080521028
1.47613e-05	-0.00021044158542475
1.47615e-05	-0.00020238724004423514
1.47618e-05	-0.00019433289466372027
1.47620e-05	-0.00018627854928326
1.47623e-05	-0.00017841170457536486
1.47625e-05	-0.00017171107439203318
1.47628e-05	-0.00016501044420874693
1.47630e-05	-0.00015830981402541525
1.47633e-05	-0.0001516091838420836
1.47635e-05	-0.00014510369437789635
1.47638e-05	-0.00013981193891148485
1.47640e-05	-0.00013452018344507332
1.47643e-05	-0.00012917497063059816
1.47645e-05	-0.0001234972644178615
1.47648e-05	-0.00011774011290119139
1.47650e-05	-0.00011148882839785578
1.47653e-05	-0.0001051918189055153
1.47655e-05	-9.86104096532666e-05
1.47658e-05	-9.197655906300883e-05
1.47660e-05	-8.501653444241684e-05
1.47663e-05	-7.79618304132144e-05
1.47665e-05	-7.024901608833117e-05
1.47668e-05	-6.204569083327311e-05
1.47670e-05	-5.341881478195985e-05
1.47673e-05	-4.443534392661122e-05
1.47675e-05	-3.5162070525671234e-05
1.47678e-05	-2.5655805440796894e-05
1.47680e-05	-1.5903662348024348e-05
1.47683e-05	-5.8116091766070726e-06
1.47685e-05	4.674719002325184e-06
1.47688e-05	1.5516700170892943e-05
1.47690e-05	2.664368922042608e-05
1.47693e-05	3.799085081740535e-05
1.47695e-05	4.9506316120496686e-05
1.47698e-05	6.105129677689635e-05
1.47700e-05	7.277985668861308e-05
1.47703e-05	8.45084166003298e-05
1.47705e-05	9.623697651196706e-05
1.47708e-05	0.00010796589547446272
1.47710e-05	0.00011969501771376077
1.47713e-05	0.00013142413995297935
1.47715e-05	0.0001430580643289852
1.47718e-05	0.00015409987813064883
1.47720e-05	0.00016514169193223763
1.47723e-05	0.00017604436156517885
1.47725e-05	0.00018608158389905215
1.47728e-05	0.00019611880623285745
1.47730e-05	0.0002059836585670615
1.47733e-05	0.0002147764059612433
1.47735e-05	0.0002233662986860396
1.47738e-05	0.0002306944782733392
1.47740e-05	0.00023802265786063883
1.47743e-05	0.0002452801168304419
1.47745e-05	0.0002520977085174392
1.47748e-05	0.0002589153002044827
1.47750e-05	0.00026563382894680083
1.47753e-05	0.00027173620712558563
1.47755e-05	0.0002778385853044118
1.47758e-05	0.00028394096348323796
1.47760e-05	0.0002900433416620227
1.47763e-05	0.00029614571984084887
1.47765e-05	0.00030224809801967503
1.47768e-05	0.00030835047619845983
1.47770e-05	0.000314452854377286
1.47773e-05	0.0003204393640549796
1.47775e-05	0.0003263602747148978
1.47778e-05	0.0003322811853748561
1.47780e-05	0.00033820209603481444
1.47783e-05	0.00034412300669473266
1.47785e-05	0.000350043917354691
1.47788e-05	0.00035596482801464937
1.47790e-05	0.0003618857386745676
1.47793e-05	0.0003677933677657029
1.47795e-05	0.0003736183883079019
1.47798e-05	0.00037944340885006137
1.47800e-05	0.0003852684293922603
1.47803e-05	0.0003910934499344593
1.47805e-05	0.0003969184704766188
1.47808e-05	0.0004023777836520859
1.47810e-05	0.0004076300513941074
1.47813e-05	0.00041288231913609336
1.47815e-05	0.00041813458687811486
1.47818e-05	0.00042338685462013637
1.47820e-05	0.00042810445586095413
1.47823e-05	0.0004326734289096578
1.47825e-05	-0.0023466011456801704
1.47828e-05	-0.022026560174417398
1.47830e-05	-0.018442210515936527
1.47833e-05	-0.014425532266779152
1.47835e-05	-0.009983700021387855
1.47838e-05	0.00550462263771498
1.47840e-05	0.0052871883872346965
1.47843e-05	0.004347283425748248
1.47845e-05	0.00012336103749567952
1.47848e-05	-0.007660769353792065
1.47850e-05	-0.008855717782019884
1.47853e-05	-0.006162759615725366
1.47855e-05	-0.0018139184631178968
1.47858e-05	0.003608202534805492
1.47860e-05	0.005069641130279278
1.47863e-05	0.0038727273187284922
1.47865e-05	0.0006447495217103204
1.47868e-05	-0.003863264433831128
1.47870e-05	-0.004676896870854923
1.47873e-05	-0.003068956407944543
1.47875e-05	-0.0004107705398614923
1.47878e-05	0.0029298297341784373
1.47880e-05	0.0037974559326790164
1.47883e-05	0.0030063526919016322
1.47885e-05	0.000948241132337351
1.47888e-05	-0.0019073895618182432
1.47890e-05	-0.00244545315166667
1.47893e-05	-0.001464039752538728
1.47895e-05	0.0001772694458415081
1.47898e-05	0.002247646791257868
1.47900e-05	0.0027703329113951698
1.47903e-05	0.0022552793296883988
1.47905e-05	0.000947791163862636
1.47908e-05	-0.0008580935015843954
1.47910e-05	-0.001211205981193924
1.47913e-05	-0.0006116252869668686
1.47915e-05	0.0004021211172323
1.47918e-05	0.0016854035825331797
1.47920e-05	0.002000020659789125
1.47923e-05	0.001665495005569355
1.47925e-05	0.0008355619947940426
1.47928e-05	-0.0003055255523132553
1.47930e-05	-0.0005355494837966019
1.47933e-05	-0.00016778769720604737
1.47935e-05	0.00046043105823961243
1.47938e-05	0.0012585382908225408
1.47940e-05	0.0014510029312627749
1.47943e-05	0.0012380629520826554
1.47945e-05	0.0007160374433710482
1.47948e-05	3.0938984232886917e-07
1.47950e-05	-0.00014360677578557847
1.47953e-05	8.794511420913588e-05
1.47955e-05	0.0004835746958633608
1.47958e-05	0.0009864746740106602
1.47960e-05	0.0011108031986115118
1.47963e-05	0.00098195537681456
1.47965e-05	0.0006602235880889683
1.47968e-05	0.0002178358319146313
1.47970e-05	0.00013423644656512267
1.47973e-05	0.0002863468662758144
1.47975e-05	0.0005416752149367576
1.47978e-05	0.0008645678818219694
1.47980e-05	0.0009506402889229173
1.47983e-05	0.0008783961605156879
1.47985e-05	0.0006855536310873316
1.47988e-05	0.00041730367035186495
1.47990e-05	0.00037390116130042175
1.47993e-05	0.0004781713023616857
1.47995e-05	0.000647050090094762
1.47998e-05	0.0008581378646853523
1.48000e-05	0.0009207117426625362
1.48003e-05	0.0008838962506835145
1.48005e-05	0.0007712645695956328
1.48008e-05	0.0006110683326961284
1.48010e-05	0.000591321179765239
1.48013e-05	0.0006636086783750655
1.48015e-05	0.0007758323623460135
1.48018e-05	0.0009138965505173734
1.48020e-05	0.0009582743248244413
1.48023e-05	0.0009396830499826526
1.48025e-05	0.0008728324891358222
1.48028e-05	0.0007753616659904661
1.48030e-05	0.0007649779808501621
1.48033e-05	0.0008112868749641546
1.48035e-05	0.0008815887339679012
1.48038e-05	0.0009669803567314994
1.48040e-05	0.0009923976789599385
1.48043e-05	0.0009767809106930186
1.48045e-05	0.0009291933891106167
1.48048e-05	0.0008607303011489875
1.48050e-05	0.0008452167268402049
1.48053e-05	0.0008637069876595413
1.48055e-05	0.000895813414216637
1.48058e-05	0.0009360555544072539
1.48060e-05	0.0009375121471666713
1.48063e-05	0.0009121478674859857
1.48065e-05	0.0008657396512382165
1.48068e-05	0.0008053365528359046
1.48070e-05	0.0007772792750577316
1.48073e-05	0.000769795272203008
1.48075e-05	0.0007702100589357377
1.48078e-05	0.0007751876081436323
1.48080e-05	0.0007554349489664404
1.48083e-05	0.0007185462360259664
1.48085e-05	0.0006682390534401376
1.48088e-05	0.0006090276883575766
1.48090e-05	0.0005700367785449294
1.48093e-05	0.0005439882618977059
1.48095e-05	0.0005230394433973526
1.48098e-05	0.0005051980397230705
1.48100e-05	0.0004722130947784147
1.48103e-05	0.0004289404109641657
1.48105e-05	0.00037780712030534996
1.48108e-05	0.0003217391680335232
1.48110e-05	0.0002790775431648669
1.48113e-05	0.0002453598637735595
1.48115e-05	0.0002157706366460908
1.48118e-05	0.00018915919040635043
1.48120e-05	0.00015419112764080843
1.48123e-05	0.00011400644010853564
1.48125e-05	7.02236178175361e-05
1.48128e-05	2.4773396721268055e-05
1.48130e-05	-1.075806911308061e-05
1.48133e-05	-3.906906166543632e-05
1.48135e-05	-6.307876914554368e-05
1.48138e-05	-8.344247671681444e-05
1.48140e-05	-0.00010761062955597076
1.48143e-05	-0.000134473142066305
1.48145e-05	-0.00016363916239210403
1.48148e-05	-0.00019403435326939458
1.48150e-05	-0.00021839699306222025
1.48153e-05	-0.0002384059905430264
1.48155e-05	-0.00025587842506588453
1.48158e-05	-0.0002712132354267884
1.48160e-05	-0.00028906553880297817
1.48163e-05	-0.00030872799034410833
1.48165e-05	-0.0003299438220578869
1.48168e-05	-0.00035202815149985807
1.48170e-05	-0.0003704205776561386
1.48173e-05	-0.000386161236130603
1.48175e-05	-0.0004003767576027752
1.48178e-05	-0.00041415491030376885
1.48180e-05	-0.0004279094387852821
1.48183e-05	-0.00044355897902917764
1.48185e-05	-0.00046049897525129324
1.48188e-05	-0.00047751867702366263
1.48190e-05	-0.0004924278855280267
1.48193e-05	-0.0005056737345142688
1.48195e-05	-0.0005177458544129253
1.48198e-05	-0.0005297445099978766
1.48200e-05	-0.0005417431655827465
1.48203e-05	-0.0005547465936135145
1.48205e-05	-0.0005679427735468467
1.48208e-05	-0.0005811474530607282
1.48210e-05	-0.0005943521325746992
1.48213e-05	-0.0006055251358053406
1.48215e-05	-0.0006156380410089522
1.48218e-05	-0.0006256877100809841
1.48220e-05	-0.0006357373791530161
1.48223e-05	-0.0006461287140663225
1.48225e-05	-0.0006562815197019327
1.48228e-05	-0.0006664163271793274
1.48230e-05	-0.0006765511346566535
1.48233e-05	-0.0006850367812666293
1.48235e-05	-0.0006923402230263012
1.48238e-05	-0.0006995702353934213
1.48240e-05	-0.0007068002477605903
1.48243e-05	-0.0007131871975310436
1.48245e-05	-0.0007175836849350262
1.48248e-05	-0.0007218474154994913
1.48250e-05	-0.0007261111460639564
1.48253e-05	-0.0007276987756127912
1.48255e-05	-0.0007270228906988626
1.48258e-05	-0.00072620414174045
1.48260e-05	-0.0007253853927820374
1.48263e-05	-0.0007227949160772817
1.48265e-05	-0.0007178615662740454
1.48268e-05	-0.000712775633096624
1.48270e-05	-0.0007076896999192369
1.48273e-05	-0.000699559747224974
1.48275e-05	-0.000691220684891867
1.48278e-05	-0.0006806843693334978
1.48280e-05	-0.0006699971129463734
1.48283e-05	-0.0006593098565592488
1.48285e-05	-0.0006462720611879084
1.48288e-05	-0.0006330727949864024
1.48290e-05	-0.0006198735287848964
1.48293e-05	-0.0006047523808789079
1.48295e-05	-0.0005894992088556861
1.48298e-05	-0.0005731872794045572
1.48300e-05	-0.0005568026183622262
1.48303e-05	-0.0005404179573197844
1.48305e-05	-0.0005233410321543961
1.48308e-05	-0.00050621655174186
1.48310e-05	-0.000489092071329208
1.48313e-05	-0.00047174625884409903
1.48315e-05	-0.0004543852419001659
1.48318e-05	-0.00043746568630799785
1.48320e-05	-0.00042057645700756594
1.48323e-05	-0.0004045733366778204
1.48325e-05	-0.0003886310878127897
1.48328e-05	-0.00037422074791966216
1.48330e-05	-0.0003599156428749422
1.48333e-05	-0.00034561053783012526
1.48335e-05	-0.0003334414888090377
1.48338e-05	-0.00032141917666056354
1.48340e-05	-0.00031087438000615327
1.48343e-05	-0.000300431081627194
1.48345e-05	-0.00028989352058560137
1.48348e-05	-0.000279349484148226
1.48350e-05	-0.0002688054477107791
1.48353e-05	-0.00025847826934476185
1.48355e-05	-0.00024816598809520847
1.48358e-05	-0.0002378537068455853
1.48360e-05	-0.00022748019745563963
1.48363e-05	-0.00021702739459726202
1.48365e-05	-0.00020657459173881355
1.48368e-05	-0.00019612178888036511
1.48370e-05	-0.00018477782726595597
1.48373e-05	-0.00017337264729040162
1.48375e-05	-0.00016196746731484728
1.48378e-05	-0.0001505622873393702
1.48380e-05	-0.00013884079619109896
1.48383e-05	-0.00012670966643742656
1.48385e-05	-0.00011457853668383634
1.48388e-05	-0.00010244740693016393
1.48390e-05	-9.031627717649151e-05
1.48393e-05	-7.76596910246253e-05
1.48395e-05	-6.496700852136835e-05
1.48398e-05	-5.231520936152935e-05
1.48400e-05	-3.971635615255876e-05
1.48403e-05	-2.71175029435028e-05
1.48405e-05	-1.4478131605381985e-05
1.48408e-05	-1.843788736880466e-06
1.48410e-05	1.0717843464315362e-05
1.48413e-05	2.3116588463750663e-05
1.48415e-05	3.526198294337001e-05
1.48418e-05	4.7070681011232305e-05
1.48420e-05	5.8499378130690615e-05
1.48423e-05	6.957593575948923e-05
1.48425e-05	8.02958294363247e-05
1.48428e-05	9.059498134930079e-05
1.48430e-05	0.00010040110846911341
1.48433e-05	0.00010962822764979386
1.48435e-05	0.00011819019057085602
1.48438e-05	0.0001260062112704726
1.48440e-05	0.00013303633009264848
1.48443e-05	0.00013931535746090356
1.48445e-05	0.0001448726189495617
1.48448e-05	0.00014969720846884444
1.48450e-05	0.0001537706307102752
1.48453e-05	0.00015706568133273469
1.48455e-05	0.00015955503007535513
1.48458e-05	0.00016121472721032756
1.48460e-05	0.00016204640708503381
1.48463e-05	0.00016209853005756563
1.48465e-05	0.00016141610401512987
1.48468e-05	0.00016001894569652204
1.48470e-05	0.0001579221357511767
1.48473e-05	0.000155135276641302
1.48475e-05	0.00015166790839665423
1.48478e-05	0.00014753168857038128
1.48480e-05	0.00014275426840059324
1.48483e-05	0.00013739266944198176
1.48485e-05	0.000131501730248066
1.48488e-05	0.00012512052396021744
1.48490e-05	0.00011828512663452192
1.48493e-05	0.00011102819991915658
1.48495e-05	0.00010338235704789226
1.48498e-05	9.538153740936447e-05
1.48500e-05	8.706971072052398e-05
1.48503e-05	7.850923101542903e-05
1.48505e-05	6.976106757956479e-05
1.48508e-05	6.0836943891539275e-05
1.48510e-05	5.190154407243435e-05
1.48513e-05	4.289648041012583e-05
1.48515e-05	3.388663117366263e-05
1.48518e-05	2.4935395970496095e-05
1.48520e-05	1.6093288121159184e-05
1.48523e-05	7.4256553781956125e-06
1.48525e-05	-1.0026926315145748e-06
1.48528e-05	-9.13314706053487e-06
1.48530e-05	-1.690827699061277e-05
1.48533e-05	-2.4271993135126395e-05
1.48535e-05	-3.116823486726397e-05
1.48538e-05	-3.754714983503463e-05
1.48540e-05	-4.3443622575996904e-05
1.48543e-05	-4.899565003842967e-05
1.48545e-05	-5.4297261167047514e-05
1.48548e-05	-5.9212201608347904e-05
1.48550e-05	-6.41016596769944e-05
1.48553e-05	-6.85603930236798e-05
1.48555e-05	-7.266304060125428e-05
1.48558e-05	-7.622868070204821e-05
1.48560e-05	-7.97589716984712e-05
1.48563e-05	-8.279981670954926e-05
1.48565e-05	-8.580703911308861e-05
1.48568e-05	-8.833886211138828e-05
1.48570e-05	-9.083802743524471e-05
1.48573e-05	-9.333719275911807e-05
1.48575e-05	-9.527970660462347e-05
1.48578e-05	-9.718398114533107e-05
1.48580e-05	-9.859813681746855e-05
1.48583e-05	-9.997862365816122e-05
1.48585e-05	-0.00010135911049884452
1.48588e-05	-0.00010235245003591565
1.48590e-05	-0.00010331919439751618
1.48593e-05	-0.0001042859387591167
1.48595e-05	-0.00010466411823646902
1.48598e-05	-0.00010500186611007504
1.48600e-05	-0.00010533961398368105
1.48603e-05	-0.00010567736185728478
1.48605e-05	-0.00010601510973089079
1.48608e-05	-0.0001063528576044968
1.48610e-05	-0.00010669060547810053
1.48613e-05	-0.0001066307761142641
1.48615e-05	-0.00010654363508818648
1.48618e-05	-0.00010645649406210947
1.48620e-05	-0.00010636935303603186
1.48623e-05	-0.00010628221200995424
1.48625e-05	-0.00010619507098387723
1.48628e-05	-0.00010610792995779962
1.48630e-05	-0.00010600224030706592
1.48633e-05	-0.00010589527645418054
1.48635e-05	-0.0001058179115221609
1.48638e-05	-0.00010574257989500245
1.48640e-05	-0.00010541691867109443
1.48643e-05	-0.00010431397296342574
1.48645e-05	-0.00010209397335339865
1.48648e-05	-9.87326760531705e-05
1.48650e-05	-9.429254424319054e-05
1.48653e-05	-8.884066344859716e-05
1.48655e-05	-8.244410484980723e-05
1.48658e-05	-7.515799653174411e-05
1.48660e-05	-6.688668745404045e-05
1.48663e-05	-5.736605897360072e-05
1.48665e-05	-4.644849956367522e-05
1.48668e-05	-3.418395771078233e-05
1.48670e-05	-2.0676702240283207e-05
1.48673e-05	-6.033884224647059e-06
1.48675e-05	9.637355164255669e-06
1.48678e-05	2.6237369884773143e-05
1.48680e-05	4.3760960371750266e-05
1.48683e-05	6.230844625958645e-05
1.48685e-05	8.190715182842608e-05
1.48688e-05	0.00010246067019706846
1.48690e-05	0.00012383855566982661
1.48693e-05	0.00014616656775667366
1.48695e-05	0.00016855624639029376
1.48698e-05	0.0001917692686231312
1.48700e-05	0.00021503885063905908
1.48703e-05	0.0002389607731267228
1.48705e-05	0.00026292750829741125
1.48708e-05	0.00028720794777555817
1.48710e-05	0.0003115399208327617
1.48713e-05	0.0003357655933151193
1.48715e-05	0.00035973706329764675
1.48718e-05	0.00038330939351621785
1.48720e-05	0.0004063747786376516
1.48723e-05	0.00042886675720280883
1.48725e-05	0.0004506902700741553
1.48728e-05	0.00047170167810857265
1.48730e-05	0.0004917440490198255
1.48733e-05	0.0005106597019959333
1.48735e-05	0.0005282911158820435
1.48738e-05	0.0005444787655019131
1.48740e-05	0.0005590492073184238
1.48743e-05	0.0005718413953740268
1.48745e-05	0.0005827649714667028
1.48748e-05	0.0005917870935190158
1.48750e-05	0.0005988872013951168
1.48753e-05	0.0006040453298672714
1.48755e-05	0.0006072415137076904
1.48758e-05	0.0006075119718862621
1.48760e-05	0.0006075901156710387
1.48763e-05	0.0006038791618565104
1.48765e-05	0.0005999079150868451
1.48768e-05	0.000592288828546503
1.48770e-05	0.0005844191527909755
1.48773e-05	0.0005731469798093669
1.48775e-05	0.0005616410714766017
1.48778e-05	0.0005469766468096986
1.48780e-05	0.0005320952471168319
1.48783e-05	0.0005143057389814917
1.48785e-05	0.0004963164576493714
1.48788e-05	0.00047580233219959064
1.48790e-05	0.0004551147619862504
1.48793e-05	0.0004319254866696663
1.48795e-05	0.00040856435612987585
1.48798e-05	0.00038520322558992714
1.48800e-05	0.0003597365536591805
1.48803e-05	0.0003341252410650893
1.48805e-05	0.00030851392847082453
1.48808e-05	0.00028194453903372077
1.48810e-05	0.000255309334281615
1.48813e-05	0.00022867412952932872
1.48815e-05	0.00020236984264129174
1.48818e-05	0.00017608828823434015
1.48820e-05	0.00014980673382721047
1.48823e-05	0.00012441407523905597
1.48825e-05	9.977684062696287e-05
1.48828e-05	7.60442340698689e-05
1.48830e-05	5.339127083719173e-05
1.48833e-05	3.19930609332812e-05
1.48835e-05	1.2024680788427099e-05
1.48838e-05	-6.346379116867684e-06
1.48840e-05	-2.3058505577416566e-05
1.48843e-05	-3.819929601851541e-05
1.48845e-05	-5.184040518732184e-05
1.48848e-05	-6.395799759736055e-05
1.48850e-05	-7.449795216697786e-05
1.48853e-05	-8.340455044448021e-05
1.48855e-05	-9.062206657204337e-05
1.48858e-05	-9.609955339048121e-05
1.48860e-05	-9.985238455039499e-05
1.48863e-05	-0.00010198940340367631
1.48865e-05	-0.00010260944083929772
1.48868e-05	-0.00010175152621367384
1.48870e-05	-9.943571274690591e-05
1.48873e-05	-9.56810406847259e-05
1.48875e-05	-9.050657844118059e-05
1.48878e-05	-8.393435108713636e-05
1.48880e-05	-7.60279604838527e-05
1.48883e-05	-6.690951502968812e-05
1.48885e-05	-5.669487417482692e-05
1.48888e-05	-4.546241356433606e-05
1.48890e-05	-3.327862346152464e-05
1.48893e-05	-2.0209364899395553e-05
1.48895e-05	-6.3204930381044335e-06
1.48898e-05	8.320268562132944e-06
1.48900e-05	2.3619177838587706e-05
1.48903e-05	3.944582866397575e-05
1.48905e-05	5.567375693345673e-05
1.48908e-05	7.22919867926977e-05
1.48910e-05	8.893529236363623e-05
1.48913e-05	0.0001057685893057128
1.48915e-05	0.00012261493774994551
1.48918e-05	0.00013928480581980782
1.48920e-05	0.00015594255052874448
1.48923e-05	0.0001719647167079541
1.48925e-05	0.000187943221669668
1.48928e-05	0.00020281788942921755
1.48930e-05	0.00021761672883113695
1.48933e-05	0.000230885458912473
1.48935e-05	0.00024404907777230797
