Time(s)	Current(A)
7.00000e-06	-0.0032147122339973534
7.00025e-06	-0.0032473940640698525
7.00050e-06	-0.003280979097148914
7.00075e-06	-0.003315352406655377
7.00100e-06	-0.00335038717223747
7.00125e-06	-0.0033858978885329895
7.00150e-06	-0.003421669922460318
7.00175e-06	-0.0034574890146694846
7.00200e-06	-0.0034931402808623725
7.00225e-06	-0.0035284100624077283
7.00250e-06	-0.003563098535967278
7.00275e-06	-0.003597029387400955
7.00300e-06	-0.0036300197458561177
7.00325e-06	-0.0036618487956122277
7.00350e-06	-0.003692278350920925
7.00375e-06	-0.0037210701892618366
7.00400e-06	-0.003747985640839466
7.00425e-06	-0.00377278659361945
7.00450e-06	-0.003795247931979015
7.00475e-06	-0.00381519754663586
7.00500e-06	-0.0038325425268158227
7.00525e-06	-0.00384712592457875
7.00550e-06	-0.0038579704774682165
7.00575e-06	-0.0038682071493083277
7.00600e-06	-0.0038713537556727498
7.00625e-06	-0.0038745003620371714
7.00650e-06	-0.0038776469684016044
7.00675e-06	-0.003875113284221782
7.00700e-06	-0.003868448806400855
7.00725e-06	-0.003861784328579951
7.00750e-06	-0.003854454412349757
7.00775e-06	-0.0038393631061302076
7.00800e-06	-0.003824271799910709
7.00825e-06	-0.0038087155644228794
7.00850e-06	-0.00378773659210702
7.00875e-06	-0.0037664280625160254
7.00900e-06	-0.0037412757173280633
7.00925e-06	-0.0037158424362608916
7.00950e-06	-0.0036871324388378984
7.00975e-06	-0.0036581912576620183
7.01000e-06	-0.0036265536477256143
7.01025e-06	-0.0035947354151403227
7.01050e-06	-0.00356081047696077
7.01075e-06	-0.0035267624822471273
7.01100e-06	-0.0034912792085695994
7.01125e-06	-0.003455737081767004
7.01150e-06	-0.00341950851719914
7.01175e-06	-0.0033832860567354567
7.01200e-06	-0.0033471347919411636
7.01225e-06	-0.0033110550848984154
7.01250e-06	-0.0032758099969693454
7.01275e-06	-0.0032407062595008348
7.01300e-06	-0.0032072511735601757
7.01325e-06	-0.003174011441150465
7.01350e-06	-0.0031432835005388198
7.01375e-06	-0.0031129288939256445
7.01400e-06	-0.003086928695948817
7.01425e-06	-0.003060928497971901
7.01450e-06	-0.003035290630058658
7.01475e-06	-0.003013878825576317
7.01500e-06	-0.002992729252428985
7.01525e-06	-0.0029746382338068644
7.01550e-06	-0.002956547215184683
7.01575e-06	-0.0029388320034586047
7.01600e-06	-0.00292550004319277
7.01625e-06	-0.0029121680829268894
7.01650e-06	-0.002899135992907641
7.01675e-06	-0.002889601461634693
7.01700e-06	-0.002880288427832921
7.01725e-06	-0.0028735588461291785
7.01750e-06	-0.002866829264425436
7.01775e-06	-0.002860384988306043
7.01800e-06	-0.002857268394920307
7.01825e-06	-0.002854151801534571
7.01850e-06	-0.002851248974367614
7.01875e-06	-0.002850839425265427
7.01900e-06	-0.0028505498990310375
7.01925e-06	-0.0028516602683706263
7.01950e-06	-0.002852886542146276
7.01975e-06	-0.002855464675863464
7.02000e-06	-0.002858156452556428
7.02025e-06	-0.0028621737124820317
7.02050e-06	-0.002866275620888564
7.02075e-06	-0.00287136483309755
7.02100e-06	-0.002876501480814955
7.02125e-06	-0.002882191396084588
7.02150e-06	-0.0028879168144420927
7.02175e-06	-0.0028940563256846016
7.02200e-06	-0.0029002205199387815
7.02225e-06	-0.0029066726063203957
7.02250e-06	-0.0029131218612801894
7.02275e-06	-0.0029195380917427026
7.02300e-06	-0.0029259299885248066
7.02325e-06	-0.002932015747201264
7.02350e-06	-0.002937814988446589
7.02375e-06	-0.002943278817825575
7.02400e-06	-0.0029483583409030912
7.02425e-06	-0.002952995838033066
7.02450e-06	-0.0029570111302923445
7.02475e-06	-0.0029599959122902754
7.02500e-06	-0.002961502120416799
7.02525e-06	-0.002960917599085906
7.02550e-06	-0.0029599981426165906
7.02575e-06	-0.002955172145450255
7.02600e-06	-0.0029503461482839194
7.02625e-06	-0.0029455201511175673
7.02650e-06	-0.0029402078480604927
7.02675e-06	-0.0029292234803695123
7.02700e-06	-0.0029182391126784946
7.02725e-06	-0.002907254744987514
7.02750e-06	-0.0028958429704954163
7.02775e-06	-0.0028794461052466806
7.02800e-06	-0.0028630492399980005
7.02825e-06	-0.002846345845758284
7.02850e-06	-0.0028260672280186064
7.02875e-06	-0.002805788610278929
7.02900e-06	-0.0027852259310642033
7.02925e-06	-0.0027613500798800736
7.02950e-06	-0.002737474228695944
7.02975e-06	-0.0027134050318501786
7.03000e-06	-0.002687080733617385
7.03025e-06	-0.002660756435384591
7.03050e-06	-0.0026343279445058283
7.03075e-06	-0.002606684195015448
7.03100e-06	-0.0025789910703088136
7.03125e-06	-0.002550722054124805
7.03150e-06	-0.0025224544260730192
7.03175e-06	-0.0024942029886027024
7.03200e-06	-0.002466004603519746
7.03225e-06	-0.002438424998871692
7.03250e-06	-0.002410939989452612
7.03275e-06	-0.0023845582984661573
7.03300e-06	-0.002358314060139082
7.03325e-06	-0.0023336730110445
7.03350e-06	-0.0023092253351903818
7.03375e-06	-0.002287033082390513
7.03400e-06	-0.0022650214338539717
7.03425e-06	-0.0022452346078358745
7.03450e-06	-0.002226889375616041
7.03475e-06	-0.002209245913132791
7.03500e-06	-0.002191431109264259
7.03525e-06	-0.002173599261707222
7.03550e-06	-0.002155568623831962
7.03575e-06	-0.0021375706484299335
7.03600e-06	-0.0021199536341931853
7.03625e-06	-0.0021023769861032117
7.03650e-06	-0.0020852711515446055
7.03675e-06	-0.0020680767278031414
7.03700e-06	-0.0020498490375931966
7.03725e-06	-0.0020316213473832515
7.03750e-06	-0.002013314268579212
7.03775e-06	-0.001994081235052523
7.03800e-06	-0.001974848201525834
7.03825e-06	-0.0019556151679990803
7.03850e-06	-0.0019363055343998483
7.03875e-06	-0.0019161024702040366
7.03900e-06	-0.0018958994060081563
7.03925e-06	-0.0018756963418123445
7.03950e-06	-0.0018554298474347797
7.03975e-06	-0.0018344235304533188
7.04000e-06	-0.001813417213471929
7.04025e-06	-0.0017924108964905393
7.04050e-06	-0.0017714045795090784
7.04075e-06	-0.0017504943607895788
7.04100e-06	-0.0017296540261869879
7.04125e-06	-0.0017088136915844676
7.04150e-06	-0.0016879733569819474
7.04175e-06	-0.001667217046762712
7.04200e-06	-0.0016474407611367177
7.04225e-06	-0.0016276644755107235
7.04250e-06	-0.001608019284102257
7.04275e-06	-0.001589903119770622
7.04300e-06	-0.0015717869554389872
7.04325e-06	-0.001553807877581793
7.04350e-06	-0.001537427717931795
7.04375e-06	-0.0015212022706635857
7.04400e-06	-0.0015067813226722253
7.04425e-06	-0.0014925630327786992
7.04450e-06	-0.0014807084605570624
7.04475e-06	-0.0014691153168218934
7.04500e-06	-0.001460571363522371
7.04525e-06	-0.00145237399586573
7.04550e-06	-0.0014482190554195122
7.04575e-06	-0.0014440641149732945
7.04600e-06	-0.0014403301769221667
7.04625e-06	-0.0014415066313594423
7.04650e-06	-0.0014426830857967182
7.04675e-06	-0.0014442993513598137
7.04700e-06	-0.0014510453864290409
7.04725e-06	-0.001457791421498268
7.04750e-06	-0.001464880835410755
7.04775e-06	-0.0014759752737885227
7.04800e-06	-0.0014872580890504664
7.04825e-06	-0.001500856916554582
7.04850e-06	-0.0015159582822561132
7.04875e-06	-0.0015325267588696622
7.04900e-06	-0.001550510295522482
7.04925e-06	-0.0015698086091384784
7.04950e-06	-0.0015902990868051166
7.04975e-06	-0.0016118588307141172
7.05000e-06	-0.0016343653535611314
7.05025e-06	-0.001657696633873707
7.05050e-06	-0.0016817399176108539
7.05075e-06	-0.0017063972717376132
7.05100e-06	-0.0017315598289452164
7.05125e-06	-0.0017570887912424509
7.05150e-06	-0.0017828314125342372
7.05175e-06	-0.0018086348395031037
7.05200e-06	-0.0018343462004454603
7.05225e-06	-0.0018598128872454485
7.05250e-06	-0.0018848886579434926
7.05275e-06	-0.0019094360504450891
7.05300e-06	-0.0019333109299550363
7.05325e-06	-0.0019563505721689393
7.05350e-06	-0.001978383068428018
7.05375e-06	-0.001999177359596954
7.05400e-06	-0.00201804572212802
7.05425e-06	-0.002036733186221771
7.05450e-06	-0.0020532148825825806
7.05475e-06	-0.00206851506320356
7.05500e-06	-0.0020830171144550383
7.05525e-06	-0.002096764912545063
7.05550e-06	-0.0021093540654474278
7.05575e-06	-0.0021217417951685303
7.05600e-06	-0.0021317802107594865
7.05625e-06	-0.0021418186263504084
7.05650e-06	-0.002151675120024674
7.05675e-06	-0.0021594097540068814
7.05700e-06	-0.0021670521737282124
7.05725e-06	-0.002173619045617148
7.05750e-06	-0.0021800537262656504
7.05775e-06	-0.0021849465846318222
7.05800e-06	-0.0021898394429979936
7.05825e-06	-0.002194591490221558
7.05850e-06	-0.002197701176298199
7.05875e-06	-0.002200723872761407
7.05900e-06	-0.002202731959452707
7.05925e-06	-0.0022047400461440068
7.05950e-06	-0.0022066509513290126
7.05975e-06	-0.002207428372848173
7.06000e-06	-0.002208205794367333
7.06025e-06	-0.0022088904285997796
7.06050e-06	-0.002208492831470633
7.06075e-06	-0.002208095234341487
7.06100e-06	-0.0022076508206942905
7.06125e-06	-0.002206660359136187
7.06150e-06	-0.0022056698975780834
7.06175e-06	-0.002204638741991981
7.06200e-06	-0.002203132948609257
7.06225e-06	-0.002201627155226533
7.06250e-06	-0.0022001034111197065
7.06275e-06	-0.002198370297418562
7.06300e-06	-0.002196637183717411
7.06325e-06	-0.0021949131832722352
7.06350e-06	-0.002193295475960128
7.06375e-06	-0.0021916859503539467
7.06400e-06	-0.0021901782877278737
7.06425e-06	-0.0021887600033593147
7.06450e-06	-0.002187579170923035
7.06475e-06	-0.00218721944757859
7.06500e-06	-0.002186996101321211
7.06525e-06	-0.002188363399276073
7.06550e-06	-0.0021898882793386196
7.06575e-06	-0.002193251129935127
7.06600e-06	-0.002196613980531646
7.06625e-06	-0.002200168019516357
7.06650e-06	-0.0022059519983660065
7.06675e-06	-0.0022117359772156754
7.06700e-06	-0.0022177552521221466
7.06725e-06	-0.0022265189199390935
7.06750e-06	-0.0022352825877560104
7.06775e-06	-0.00224421349944798
7.06800e-06	-0.002255095072409824
7.06825e-06	-0.002266062121216311
7.06850e-06	-0.002278085418226159
7.06875e-06	-0.0022908632712330423
7.06900e-06	-0.0023044351678110316
7.06925e-06	-0.002318753971016911
7.06950e-06	-0.002333725114837698
7.06975e-06	-0.0023492536043706784
7.07000e-06	-0.0023652444814850036
7.07025e-06	-0.0023816049268240175
7.07050e-06	-0.0023982661092844717
7.07075e-06	-0.002415206651404402
7.07100e-06	-0.0024324038327013663
7.07125e-06	-0.002449779268294852
7.07150e-06	-0.002467225623258252
7.07175e-06	-0.0024846355626647228
7.07200e-06	-0.0025019017515875994
7.07225e-06	-0.0025189179030940083
7.07250e-06	-0.002535592527623643
7.07275e-06	-0.0025518643049734844
7.07300e-06	-0.0025676707990769806
7.07325e-06	-0.0025829150049582203
7.07350e-06	-0.0025974818858934367
7.07375e-06	-0.002611256153942352
7.07400e-06	-0.002624122147432548
7.07425e-06	-0.002635984667978912
7.07450e-06	-0.0026470265909961216
7.07475e-06	-0.0026579845697752695
7.07500e-06	-0.0026696260698751226
7.07525e-06	-0.0026821348859643974
7.07550e-06	-0.002695372624711396
7.07575e-06	-0.00270919972863138
7.07600e-06	-0.0027234756231730543
7.07625e-06	-0.0027380727875724563
7.07650e-06	-0.002753037831895217
7.07675e-06	-0.002768812972664031
7.07700e-06	-0.0027862330121762482
7.07725e-06	-0.0028037869834568433
7.07750e-06	-0.002822975996097809
7.07775e-06	-0.0028431002923345076
7.07800e-06	-0.0028642136079317557
7.07825e-06	-0.002885394914424569
7.07850e-06	-0.0029074269325582314
7.07875e-06	-0.002930242165992964
7.07900e-06	-0.0029543437464861163
7.07925e-06	-0.0029785404094337846
7.07950e-06	-0.0030038920750124947
7.07975e-06	-0.0030298131921320396
7.08000e-06	-0.0030561438504623905
7.08025e-06	-0.0030827740881609455
7.08050e-06	-0.003109435168133012
7.08075e-06	-0.003136455979236388
7.08100e-06	-0.0031635000576404953
7.08125e-06	-0.0031908152769071947
7.08150e-06	-0.003218113900613859
7.08175e-06	-0.0032452241365169983
7.08200e-06	-0.0032719746028771197
7.08225e-06	-0.0032981967739478964
7.08250e-06	-0.0033237651435178393
7.08275e-06	-0.0033486393157262616
7.08300e-06	-0.003372783745337086
7.08325e-06	-0.0033960726660072736
7.08350e-06	-0.003418331007478734
7.08375e-06	-0.003439383858780583
7.08400e-06	-0.003459055702379077
7.08425e-06	-0.0034771475296316
7.08450e-06	-0.003493128314417771
7.08475e-06	-0.003505848792480206
7.08500e-06	-0.003514226770481936
7.08525e-06	-0.0035179675363151922
7.08550e-06	-0.0035171871867273915
7.08575e-06	-0.0035118387324034983
7.08600e-06	-0.0035006124536737615
7.08625e-06	-0.0034888859601514316
7.08650e-06	-0.0034707445032163787
7.08675e-06	-0.0034458303437768746
7.08700e-06	-0.0034201048257028284
7.08725e-06	-0.0033849159663740815
7.08750e-06	-0.0033489999556315874
7.08775e-06	-0.003304602760761771
7.08800e-06	-0.0032595692222209443
7.08825e-06	-0.0032071136423589457
7.08850e-06	-0.0031540428441744852
7.08875e-06	-0.0030937964017298627
7.08900e-06	-0.0030329673298928085
7.08925e-06	-0.002965342717181209
7.08950e-06	-0.002897260305847053
7.08975e-06	-0.0028238383265240235
7.09000e-06	-0.0027500874977793707
7.09025e-06	-0.002672501109563948
7.09050e-06	-0.0025947249793140527
7.09075e-06	-0.0025146280928969407
7.09100e-06	-0.0024331974679597315
7.09125e-06	-0.002350821063744724
7.09150e-06	-0.0022679880758198104
7.09175e-06	-0.00218518793258437
7.09200e-06	-0.0021029102584958705
7.09225e-06	-0.0020216407680099338
7.09250e-06	-0.0019418139364393897
7.09275e-06	-0.0018637693564704015
7.09300e-06	-0.0017878566747607115
7.09325e-06	-0.0017145469580390426
7.09350e-06	-0.0016443743198017104
7.09375e-06	-0.001577872910317436
7.09400e-06	-0.0015155772811650259
7.09425e-06	-0.0014579869405669992
7.09450e-06	-0.001405111245286866
7.09475e-06	-0.00135603518009499
7.09500e-06	-0.0013103656239651113
7.09525e-06	-0.0012651016782059073
7.09550e-06	-0.0012245685989058317
7.09575e-06	-0.0011845351000864777
7.09600e-06	-0.001150328495035765
7.09625e-06	-0.0011165336182491932
7.09650e-06	-0.0010877644536980517
7.09675e-06	-0.0010618317775774996
7.09700e-06	-0.0010385794468569963
7.09725e-06	-0.0010156340128459496
7.09750e-06	-0.0009962680912293954
7.09775e-06	-0.0009772563041828546
7.09800e-06	-0.0009623749918013784
7.09825e-06	-0.0009477752358231756
7.09850e-06	-0.0009366113192678523
7.09875e-06	-0.0009273749213021582
7.09900e-06	-0.0009199579265255814
7.09925e-06	-0.0009127395702396611
7.09950e-06	-0.0009078380486332903
7.09975e-06	-0.0009031531675689196
7.10000e-06	-0.0009009950894367151
7.10025e-06	-0.0008990022335018105
7.10050e-06	-0.0008990203121380251
7.10075e-06	-0.000900070235239944
7.10100e-06	-0.0009017901946510418
7.10125e-06	-0.000904046399763546
7.10150e-06	-0.0009068371916804287
7.10175e-06	-0.0009101619071351072
7.10200e-06	-0.0009140196239979497
7.10225e-06	-0.0009184041770775605
7.10250e-06	-0.0009232338840375563
7.10275e-06	-0.0009282709382366405
7.10300e-06	-0.0009332521703615686
7.10325e-06	-0.0009380473607940781
7.10350e-06	-0.0009425341528164558
7.10375e-06	-0.0009469886431879377
7.10400e-06	-0.0009510409440413597
7.10425e-06	-0.0009547796087718743
7.10450e-06	-0.0009583387114410918
7.10475e-06	-0.0009621659585656856
7.10500e-06	-0.0009667173344480764
7.10525e-06	-0.0009721053597659118
7.10550e-06	-0.000978279474829722
7.10575e-06	-0.0009853745230337864
7.10600e-06	-0.0009925584162908494
7.10625e-06	-0.0010007785603727381
7.10650e-06	-0.0010091229238946835
7.10675e-06	-0.0010189161300127308
7.10700e-06	-0.0010288714809955147
7.10725e-06	-0.0010407180205599452
7.10750e-06	-0.0010526702236392247
7.10775e-06	-0.0010659147328389376
7.10800e-06	-0.0010799097359775567
7.10825e-06	-0.0010945590659152684
7.10850e-06	-0.0011098298409328003
7.10875e-06	-0.0011258119645859246
7.10900e-06	-0.0011425982937927578
7.10925e-06	-0.0011601472575551428
7.10950e-06	-0.0011783437823774249
7.10975e-06	-0.0011970721698156886
7.11000e-06	-0.0012162169266776248
7.11025e-06	-0.0012356652471988462
7.11050e-06	-0.0012553434849733004
7.11075e-06	-0.0012752553133969263
7.11100e-06	-0.0012954063922426633
7.11125e-06	-0.001315717824663051
7.11150e-06	-0.001336064865497779
7.11175e-06	-0.001356322064994626
7.11200e-06	-0.0013763645003204113
7.11225e-06	-0.0013960688880756847
7.11250e-06	-0.0014153364263548521
7.11275e-06	-0.001434116710501668
7.11300e-06	-0.00145236049271853
7.11325e-06	-0.0014699657558147694
7.11350e-06	-0.0014868015325533856
7.11375e-06	-0.0015027368556972107
7.11400e-06	-0.001517640739623438
7.11425e-06	-0.001531383528676181
7.11450e-06	-0.001543858314919799
7.11475e-06	-0.0015550172250165712
7.11500e-06	-0.001564802267736604
7.11525e-06	-0.001572732363044133
7.11550e-06	-0.001580327442773323
7.11575e-06	-0.0015840150436113435
7.11600e-06	-0.001587702644449364
7.11625e-06	-0.001591390245287397
7.11650e-06	-0.0015946290106067249
7.11675e-06	-0.001592632749771867
7.11700e-06	-0.0015906364889370025
7.11725e-06	-0.0015886402281021447
7.11750e-06	-0.0015862831302861776
7.11775e-06	-0.0015797173837453309
7.11800e-06	-0.0015731516372045062
7.11825e-06	-0.0015663083868091478
7.11850e-06	-0.0015562284497534409
7.11875e-06	-0.0015461485126977339
7.11900e-06	-0.0015358738464437227
7.11925e-06	-0.0015233279418334167
7.11950e-06	-0.0015106536809653109
7.11975e-06	-0.0014964823274239481
7.12000e-06	-0.0014822057654176415
7.12025e-06	-0.0014667020967256785
7.12050e-06	-0.001451120292741755
7.12075e-06	-0.001434627152021924
7.12100e-06	-0.0014180877065235369
7.12125e-06	-0.0014010081818276057
7.12150e-06	-0.0013839133095383627
7.12175e-06	-0.0013666394294626993
7.12200e-06	-0.0013493810854353727
7.12225e-06	-0.001332303947253597
7.12250e-06	-0.0013152757016595704
7.12275e-06	-0.0012988177183669311
7.12300e-06	-0.0012824449443243403
7.12325e-06	-0.0012670660146496628
7.12350e-06	-0.0012517733697976709
7.12375e-06	-0.0012375565117475273
7.12400e-06	-0.0012242273901020171
7.12425e-06	-0.001211911715086312
7.12450e-06	-0.0012009125931430843
7.12475e-06	-0.0011918619724332277
7.12500e-06	-0.0011853492184294688
7.12525e-06	-0.001181536830029161
7.12550e-06	-0.0011804653992324545
7.12575e-06	-0.001182938526329346
7.12600e-06	-0.0011857060201752147
7.12625e-06	-0.0011921047784544132
7.12650e-06	-0.0012010305600495777
7.12675e-06	-0.0012128672412687128
7.12700e-06	-0.0012288837194533234
7.12725e-06	-0.0012452439258140865
7.12750e-06	-0.0012658246040841367
7.12775e-06	-0.0012890686992961435
7.12800e-06	-0.0013148075072629925
7.12825e-06	-0.001342966709178894
7.12850e-06	-0.001374228123002707
7.12875e-06	-0.001405760769572115
7.12900e-06	-0.0014406274237236916
7.12925e-06	-0.001477634087157993
7.12950e-06	-0.0015165441855553281
7.12975e-06	-0.0015571209117653873
7.13000e-06	-0.0015991272717714349
7.13025e-06	-0.0016423297188198703
7.13050e-06	-0.0016865381116245985
7.13075e-06	-0.0017316432219419157
7.13100e-06	-0.00177752547381099
7.13125e-06	-0.0018239599853998026
7.13150e-06	-0.0018706678868551643
7.13175e-06	-0.0019173696833753827
7.13200e-06	-0.001963786122181862
7.13225e-06	-0.0020096401659068426
7.13250e-06	-0.002054681295986992
7.13275e-06	-0.002098710546351334
7.13300e-06	-0.0021415220443741423
7.13325e-06	-0.00218284400246858
7.13350e-06	-0.002222371124502971
7.13375e-06	-0.00225979745262584
7.13400e-06	-0.002294816888084316
7.13425e-06	-0.00232715899432994
7.13450e-06	-0.002357042511568015
7.13475e-06	-0.0023856715331550976
7.13500e-06	-0.0024143388559362167
7.13525e-06	-0.0024433431470693126
7.13550e-06	-0.0024724254375353897
7.13575e-06	-0.0025012961345179715
7.13600e-06	-0.002529457233698646
7.13625e-06	-0.0025575379315304785
7.13650e-06	-0.0025846808990780718
7.13675e-06	-0.002611886678725098
7.13700e-06	-0.0026398939990635844
7.13725e-06	-0.0026688191271782417
7.13750e-06	-0.002698428834122168
7.13775e-06	-0.002728487859822863
7.13800e-06	-0.0027587601508647737
7.13825e-06	-0.0027890272846741487
7.13850e-06	-0.0028192569548669507
7.13875e-06	-0.0028498362937050092
7.13900e-06	-0.002881407546907972
7.13925e-06	-0.002913048362997412
7.13950e-06	-0.002945523972907181
7.13975e-06	-0.0029782736710047076
7.14000e-06	-0.0030110311963369796
7.14025e-06	-0.0030437595892803568
7.14050e-06	-0.0030761481944577593
7.14075e-06	-0.0031085417913950955
7.14100e-06	-0.0031409936100923602
7.14125e-06	-0.003173433468790115
7.14150e-06	-0.0032057040276808175
7.14175e-06	-0.00323754948438044
7.14200e-06	-0.0032684911635228555
7.14225e-06	-0.003299292071357956
7.14250e-06	-0.0033284510826773342
7.14275e-06	-0.003357468339045991
7.14300e-06	-0.0033848322261026994
7.14325e-06	-0.003412065959684078
7.14350e-06	-0.0034376737687965473
7.14375e-06	-0.0034618996935289513
7.14400e-06	-0.003484542801035656
