Time(s)	Current(A)
5.00000e-06	0.01723660809394371
5.00025e-06	0.017253468136952832
5.00050e-06	0.017268046933131664
5.00075e-06	0.017281552041786163
5.00100e-06	0.017295057150440662
5.00125e-06	0.017308562259095207
5.00150e-06	0.01732030687931025
5.00175e-06	0.017331222911207318
5.00200e-06	0.017342138943104424
5.00225e-06	0.017353054975001492
5.00250e-06	0.017362618217184753
5.00275e-06	0.01737154475779796
5.00300e-06	0.01738047129841113
5.00325e-06	0.017389397839024306
5.00350e-06	0.017398324379637512
5.00375e-06	0.017406225024109694
5.00400e-06	0.017413642822152017
5.00425e-06	0.01742106062019431
5.00450e-06	0.01742847841823661
5.00475e-06	0.01743589621627893
5.00500e-06	0.01744198465556864
5.00525e-06	0.017447447421262308
5.00550e-06	0.01745291018695599
5.00575e-06	0.017458372952649657
5.00600e-06	0.017463835718343323
5.00625e-06	0.01746929848403701
5.00650e-06	0.017474761249730675
5.00675e-06	0.017479868329037397
5.00700e-06	0.017483354704051393
5.00725e-06	0.01748684107906538
5.00750e-06	0.017490327454079368
5.00775e-06	0.017493813829093364
5.00800e-06	0.017497300204107353
5.00825e-06	0.01750078657912135
5.00850e-06	0.017504272954135335
5.00875e-06	0.017506628014791664
5.00900e-06	0.01750845061307019
5.00925e-06	0.017508659641368867
5.00950e-06	0.01750810922972727
5.00975e-06	0.017502338357702124
5.01000e-06	0.017494110433196253
5.01025e-06	0.017485882508690383
5.01050e-06	0.017469710573599865
5.01075e-06	0.01744979972479688
5.01100e-06	0.0174298888759939
5.01125e-06	0.017409978027190846
5.01150e-06	0.017387241383086727
5.01175e-06	0.017351628849596852
5.01200e-06	0.017316016316106853
5.01225e-06	0.017280403782616978
5.01250e-06	0.017244791249126982
5.01275e-06	0.01720078705407504
5.01300e-06	0.01715283325470809
5.01325e-06	0.017104879455340977
5.01350e-06	0.017051031608226946
5.01375e-06	0.01699440967921719
5.01400e-06	0.016937787750207243
5.01425e-06	0.01687685093580251
5.01450e-06	0.016813883285210184
5.01475e-06	0.016748533909070367
5.01500e-06	0.016682063554274915
5.01525e-06	0.016613975829884206
5.01550e-06	0.01654512687723295
5.01575e-06	0.016475051915366412
5.01600e-06	0.016404399922210933
5.01625e-06	0.01633339203175195
5.01650e-06	0.016262343289154116
5.01675e-06	0.01619174425106769
5.01700e-06	0.016121992479991756
5.01725e-06	0.01605345737727872
5.01750e-06	0.01598640165473861
5.01775e-06	0.015921070435268414
5.01800e-06	0.015857814487743482
5.01825e-06	0.015798100184460394
5.01850e-06	0.015739721160193197
5.01875e-06	0.015686098621059213
5.01900e-06	0.015634714760649777
5.01925e-06	0.015593573223941995
5.01950e-06	0.015557252320857511
5.01975e-06	0.015520931417772905
5.02000e-06	0.015484610514688421
5.02025e-06	0.015448289611603938
5.02050e-06	0.015416076900917602
5.02075e-06	0.015402583391462436
5.02100e-06	0.015389089882007226
5.02125e-06	0.01537559637255206
5.02150e-06	0.015362102863096897
5.02175e-06	0.015348609353641686
5.02200e-06	0.015343647771213107
5.02225e-06	0.015342931263728906
5.02250e-06	0.015346583673146213
5.02275e-06	0.0006248904013082812
5.02300e-06	-0.030863023172021543
5.02325e-06	-0.0076642983736479355
5.02350e-06	0.016353093078268013
5.02375e-06	0.0422618839711182
5.02400e-06	0.046621726161815286
5.02425e-06	0.0340914703578832
5.02450e-06	0.014211740052521942
5.02475e-06	-0.00851082179985084
5.02500e-06	-0.011603399121034216
5.02525e-06	0.0011940327204679607
5.02550e-06	0.017385700303294192
5.02575e-06	0.03346439057450896
5.02600e-06	0.036082349294526445
5.02625e-06	0.028179542186819936
5.02650e-06	0.015700659115808983
5.02675e-06	0.0014541589604238625
5.02700e-06	-0.000490330027332691
5.02725e-06	0.007520251665059836
5.02750e-06	0.01765646221655571
5.02775e-06	0.027720492934799012
5.02800e-06	0.029351263375409654
5.02825e-06	0.024390751125111798
5.02850e-06	0.01656290793549024
5.02875e-06	0.007626937748784924
5.02900e-06	0.00639555973633739
5.02925e-06	0.011397978365772991
5.02950e-06	0.01772975510629551
5.02975e-06	0.0240145117123462
5.03000e-06	0.025015356243183285
5.03025e-06	0.021886624203625558
5.03050e-06	0.01696132874988421
5.03075e-06	0.011341611456476643
5.03100e-06	0.0105476259323051
5.03125e-06	0.013657736258739147
5.03150e-06	0.01759965879337088
5.03175e-06	0.02151126241409029
5.03200e-06	0.02211238569454403
5.03225e-06	0.02012644265722316
5.03250e-06	0.017015068428306607
5.03275e-06	0.01346878582104667
5.03300e-06	0.01294536329276931
5.03325e-06	0.014867308724897605
5.03350e-06	0.017310084301960564
5.03375e-06	0.019733702632028755
5.03400e-06	0.020083642715346038
5.03425e-06	0.01881329143800921
5.03450e-06	0.016838394829309197
5.03475e-06	0.014591612971523274
5.03500e-06	0.014238887440900244
5.03525e-06	0.015418396736948427
5.03550e-06	0.01692460172181026
5.03575e-06	0.01841931732789655
5.03600e-06	0.018615728092991515
5.03625e-06	0.017798016414455737
5.03650e-06	0.01653994553685504
5.03675e-06	0.015112640334674615
5.03700e-06	0.014872872568767436
5.03725e-06	0.015593975988252972
5.03750e-06	0.016520827718160082
5.03775e-06	0.01744165514870757
5.03800e-06	0.01755051428195378
5.03825e-06	0.01702556253461898
5.03850e-06	0.016226323347353324
5.03875e-06	0.015322723241854214
5.03900e-06	0.015164690343567877
5.03925e-06	0.015609928165310065
5.03950e-06	0.016184470811575896
5.03975e-06	0.01675462417234362
5.04000e-06	0.016815114233575852
5.04025e-06	0.016477557417854255
5.04050e-06	0.01596724798244756
5.04075e-06	0.015390703629459246
5.04100e-06	0.015280362324056265
5.04125e-06	0.015547115098412334
5.04150e-06	0.01589411240930999
5.04175e-06	0.01623767021218371
5.04200e-06	0.016261365298176546
5.04225e-06	0.016035204786848403
5.04250e-06	0.015700391033469978
5.04275e-06	0.015323718736557196
5.04300e-06	0.015238760389432063
5.04325e-06	0.015389738755509436
5.04350e-06	0.015590760707729774
5.04375e-06	0.015789467365358682
5.04400e-06	0.01578772831920606
5.04425e-06	0.015629474867412556
5.04450e-06	0.015403234645839557
5.04475e-06	0.015150915344053922
5.04500e-06	0.01508152535596179
5.04525e-06	0.015160176759187889
5.04550e-06	0.015270483577493004
5.04575e-06	0.015379712787680229
5.04600e-06	0.015363826390594063
5.04625e-06	0.01525042091554258
5.04650e-06	0.01509502128867652
5.04675e-06	0.014923946730650641
5.04700e-06	0.014868182330768424
5.04725e-06	0.014905930101525511
5.04750e-06	0.014964347406485794
5.04775e-06	0.015022996527319718
5.04800e-06	0.015004249656181506
5.04825e-06	0.014925465095566004
5.04850e-06	0.014821495219567046
5.04875e-06	0.014708894446927146
5.04900e-06	0.014669773766647276
5.04925e-06	0.014690509055817895
5.04950e-06	0.014725421999989793
5.04975e-06	0.014761607053021316
5.05000e-06	0.01475035279665062
5.05025e-06	0.014702474257585446
5.05050e-06	0.014639748250087035
5.05075e-06	0.01457249007391771
5.05100e-06	0.014552075478060698
5.05125e-06	0.014569909613332504
5.05150e-06	0.014597321179674464
5.05175e-06	0.014626169572852322
5.05200e-06	0.014625887319432351
5.05225e-06	0.014603195346560216
5.05250e-06	0.014571679771034156
5.05275e-06	0.014537746695535807
5.05300e-06	0.014533520126752622
5.05325e-06	0.014553557269377114
5.05350e-06	0.01457984134820081
5.05375e-06	0.014607217472674253
5.05400e-06	0.014616482392569751
5.05425e-06	0.014611791414303644
5.05450e-06	0.01460160003178338
5.05475e-06	0.01458986516573996
5.05500e-06	0.014596652567681074
5.05525e-06	0.014618496163673214
5.05550e-06	0.014644052791423412
5.05575e-06	0.014670037267605133
5.05600e-06	0.014684366669765997
5.05625e-06	0.014689587596581082
5.05650e-06	0.014690941841724451
5.05675e-06	0.014696509189161024
5.05700e-06	0.014703989106419048
5.05725e-06	0.014721651507112618
5.05750e-06	0.014743152070832172
5.05775e-06	0.014760268848476105
5.05800e-06	0.014775719955650315
5.05825e-06	0.014783717480904823
5.05850e-06	0.014786917774629305
5.05875e-06	0.01479147435913657
5.05900e-06	0.01479683272356962
5.05925e-06	0.014807453054599205
5.05950e-06	0.014819282680660432
5.05975e-06	0.014826967246153629
5.06000e-06	0.014833186618306932
5.06025e-06	0.014833709543372807
5.06050e-06	0.014830204018186618
5.06075e-06	0.014826439352200663
5.06100e-06	0.01482284584404651
5.06125e-06	0.014821760457950202
5.06150e-06	0.014820659831683411
5.06175e-06	0.014816153382869039
5.06200e-06	0.014810489078970228
5.06225e-06	0.014800708502181906
5.06250e-06	0.014787348955175372
5.06275e-06	0.014773223120024891
5.06300e-06	0.014760484319179992
5.06325e-06	0.014748576018907033
5.06350e-06	0.01473563125728363
5.06375e-06	0.01472224722056383
5.06400e-06	0.01470593338987451
5.06425e-06	0.014687123891772357
5.06450e-06	0.01466688828315067
5.06475e-06	0.01464630915866025
5.06500e-06	0.01462573003416976
5.06525e-06	0.01460611941804019
5.06550e-06	0.014585933155327118
5.06575e-06	0.014565386316685882
5.06600e-06	0.014544839478044715
5.06625e-06	0.014522725947920515
5.06650e-06	0.014500158755954453
5.06675e-06	0.014477646516239989
5.06700e-06	0.014455134276525526
5.06725e-06	0.014434068956842447
5.06750e-06	0.014413990013948896
5.06775e-06	0.014394076785099259
5.06800e-06	0.01437416355624969
5.06825e-06	0.014354429422797708
5.06850e-06	0.014336198850323868
5.06875e-06	0.014318515828599644
5.06900e-06	0.01430083280687542
5.06925e-06	0.014285300952329483
5.06950e-06	0.014270224624076257
5.06975e-06	0.014255008986293047
5.07000e-06	0.014239793348509786
5.07025e-06	0.014223183597995508
5.07050e-06	0.014206041985127994
5.07075e-06	0.014188900372260421
5.07100e-06	0.014171926843906583
5.07125e-06	0.014155017440801006
5.07150e-06	0.014138108037695373
5.07175e-06	0.014119562731836366
5.07200e-06	0.01410039331928299
5.07225e-06	0.01408122390672968
5.07250e-06	0.01406063543842253
5.07275e-06	0.014039505591849582
5.07300e-06	0.014018375745276706
5.07325e-06	0.01399662344669462
5.07350e-06	0.013974633678944443
5.07375e-06	0.013952643911194338
5.07400e-06	0.013929182055678044
5.07425e-06	0.013905158589865756
5.07450e-06	0.01388113512405355
5.07475e-06	0.013856683132616227
5.07500e-06	0.013832067656087339
5.07525e-06	0.013807452179558536
5.07550e-06	0.013782691539131553
5.07575e-06	0.013757875517808266
5.07600e-06	0.013733059496485062
5.07625e-06	0.013708254710757609
5.07650e-06	0.013683454211477314
5.07675e-06	0.01365865371219702
5.07700e-06	0.01363493362781208
5.07725e-06	0.013611625728178037
5.07750e-06	0.013588317828543993
5.07775e-06	0.01356633078555617
5.07800e-06	0.013544847657286658
5.07825e-06	0.013523364529017144
5.07850e-06	0.013503939761904442
5.07875e-06	0.013485300271896088
5.07900e-06	0.013466660781887733
5.07925e-06	0.013450341442419154
5.07950e-06	0.01343490725427177
5.07975e-06	0.013419473066124383
5.08000e-06	0.013405184459328243
5.08025e-06	0.013391332898675987
5.08050e-06	0.013377481338023684
5.08075e-06	0.013365185907394531
5.08100e-06	0.013353484149685346
5.08125e-06	0.013341782391976122
5.08150e-06	0.013331298348143504
5.08175e-06	0.013321278869444932
5.08200e-06	0.013311259390746327
5.08225e-06	0.013302016067008022
5.08250e-06	0.013293068851033691
5.08275e-06	0.01328412163505933
5.08300e-06	0.013276226969702806
5.08325e-06	0.013268733858708309
5.08350e-06	0.013261240747713786
5.08375e-06	0.013254336606652952
5.08400e-06	0.01324765716114781
5.08425e-06	0.013240977715642645
5.08450e-06	0.013234855330979
5.08475e-06	0.013228945468361347
5.08500e-06	0.013223035605743675
5.08525e-06	0.013217721004993362
5.08550e-06	0.013212633500209079
5.08575e-06	0.013207545995424813
5.08600e-06	0.013202738931112588
5.08625e-06	0.013198038856519347
5.08650e-06	0.013193338781926122
5.08675e-06	0.013188994426297033
5.08700e-06	0.013184785779582332
5.08725e-06	0.013180577132867645
5.08750e-06	0.01317661499512558
5.08775e-06	0.013172746902032332
5.08800e-06	0.013168878808939095
5.08825e-06	0.013165123071804211
5.08850e-06	0.013161410199140064
5.08875e-06	0.01315769732647593
5.08900e-06	0.013154541514653308
5.08925e-06	0.013151598224876656
5.08950e-06	0.013148654935100012
5.08975e-06	0.013148837163372841
5.09000e-06	0.013150211795492974
5.09025e-06	0.013151586427613106
5.09050e-06	0.013156462970243225
5.09075e-06	0.013162675512697626
5.09100e-06	0.013168888055152027
5.09125e-06	0.013178669022843795
5.09150e-06	0.013189811366126495
5.09175e-06	0.013200953709409194
5.09200e-06	0.013216475912660532
5.09225e-06	0.013233669058710509
5.09250e-06	0.013250862204760485
5.09275e-06	0.013271632764524565
5.09300e-06	0.013293768129037169
5.09325e-06	0.013315903493549771
5.09350e-06	0.01334136010019146
5.09375e-06	0.013368083780588333
5.09400e-06	0.013394807460985298
5.09425e-06	0.013424353523056095
5.09450e-06	0.013454976340632026
5.09475e-06	0.013485599158208062
5.09500e-06	0.013517870462405011
5.09525e-06	0.013550770674116737
5.09550e-06	0.013583670885828573
5.09575e-06	0.013617547246106509
5.09600e-06	0.013651796012906278
5.09625e-06	0.013686044779706162
5.09650e-06	0.01372005872255296
5.09675e-06	0.013753983078655904
5.09700e-06	0.013787907434758962
5.09725e-06	0.013820310491185726
5.09750e-06	0.013852133162678621
5.09775e-06	0.013883955834171624
5.09800e-06	0.013913154095189159
5.09825e-06	0.013941351127899172
5.09850e-06	0.013969548160609087
5.09875e-06	0.01399363858304095
5.09900e-06	0.014016162309067243
5.09925e-06	0.01403868603509346
5.09950e-06	0.014056428116243773
5.09975e-06	0.014072345971248297
5.10000e-06	0.014088263826252766
5.10025e-06	0.014099340038299544
5.10050e-06	0.014108569134573156
5.10075e-06	0.014117798230846738
5.10100e-06	0.01412357125784112
5.10125e-06	0.014119997715778636
5.10150e-06	0.014113361421552785
5.10175e-06	0.014106725127326934
5.10200e-06	0.014100088833101059
5.10225e-06	0.014093452538875208
5.10250e-06	0.014086816244649334
5.10275e-06	0.014080179950423483
5.10300e-06	0.01407354365619763
5.10325e-06	0.014066907361971756
5.10350e-06	0.014049256962955465
5.10375e-06	0.01402740461702526
5.10400e-06	0.01400555227109498
5.10425e-06	0.013983699925164775
5.10450e-06	0.01396184757923457
5.10475e-06	0.01393999523330429
5.10500e-06	0.013918142887374084
5.10525e-06	0.01389629054144388
5.10550e-06	0.0138744381955136
5.10575e-06	0.013848623354547743
5.10600e-06	0.013821296798004234
5.10625e-06	0.013793970241460632
5.10650e-06	0.013766643684917123
5.10675e-06	0.013739317128373521
5.10700e-06	0.013711990571830012
5.10725e-06	0.013684664015286504
5.10750e-06	0.013657337458742902
5.10775e-06	0.013630010902199391
5.10800e-06	0.013608438169187817
5.10825e-06	0.01358906055429887
5.10850e-06	0.01356968293940999
5.10875e-06	0.013550305324521112
5.10900e-06	0.013530927709632165
5.10925e-06	0.013511550094743285
5.10950e-06	0.013492172479854405
5.10975e-06	0.01347279486496546
5.11000e-06	0.01345341725007658
5.11025e-06	0.01344891153424196
5.11050e-06	0.013450079536926876
5.11075e-06	0.013451247539611787
5.11100e-06	0.013452415542296703
5.11125e-06	0.013453583544981614
5.11150e-06	0.013454751547666526
5.11175e-06	0.01345591955035144
5.11200e-06	0.01346171476882539
5.11225e-06	0.01348355403484743
5.11250e-06	0.013505393300869547
5.11275e-06	0.013527232566891588
5.11300e-06	0.01354907183291363
5.11325e-06	0.013570911098935745
5.11350e-06	0.013592750364957787
5.11375e-06	0.013614589630979827
5.11400e-06	0.013648350557581939
5.11425e-06	0.013686659669063565
5.11450e-06	0.013724968780545193
5.11475e-06	0.01376327789202695
5.11500e-06	0.013801587003508578
5.11525e-06	0.013839896114990334
5.11550e-06	0.013878205226471962
5.11575e-06	0.013916514337953588
5.11600e-06	0.013954823449435346
5.11625e-06	0.013993132560916973
5.11650e-06	0.014031099853698232
5.11675e-06	0.014067881950947155
5.11700e-06	0.014104664048195954
5.11725e-06	0.014141446145444752
5.11750e-06	0.014178228242693674
5.11775e-06	0.014215010339942472
5.11800e-06	0.01425179243719127
5.11825e-06	0.014288574534440192
5.11850e-06	0.01432535663168899
5.11875e-06	0.014362138728937789
5.11900e-06	0.014398920826186712
5.11925e-06	0.014419451508506917
5.11950e-06	0.014433782178744504
5.11975e-06	0.014448112848982043
5.12000e-06	0.014462443519219584
5.12025e-06	0.014476774189457172
5.12050e-06	0.01449110485969471
5.12075e-06	0.01450543552993225
5.12100e-06	0.014519766200169837
5.12125e-06	0.014534096870407376
5.12150e-06	0.014548427540644917
5.12175e-06	0.014562758210882504
5.12200e-06	0.014577088881120043
5.12225e-06	0.014586937133590622
5.12250e-06	0.014581243399898434
5.12275e-06	0.014575549666206264
5.12300e-06	0.014569855932514093
5.12325e-06	0.014564162198821905
5.12350e-06	0.014558468465129735
5.12375e-06	0.014552774731437545
5.12400e-06	0.014547080997745376
5.12425e-06	0.014541387264053206
5.12450e-06	0.014535693530361016
5.12475e-06	0.014529999796668846
5.12500e-06	0.014524306062976677
5.12525e-06	0.014518612329284487
5.12550e-06	0.014507072058919013
5.12575e-06	0.014493301299813329
5.12600e-06	0.014479530540707598
5.12625e-06	0.014465759781601913
5.12650e-06	0.014451989022496229
5.12675e-06	0.014438218263390498
5.12700e-06	0.014424447504284814
5.12725e-06	0.01441067674517913
5.12750e-06	0.0143969059860734
5.12775e-06	0.014383135226967715
5.12800e-06	0.014369364467861984
5.12825e-06	0.0143555937087563
5.12850e-06	0.014343983495595217
5.12875e-06	0.014339864591123805
5.12900e-06	0.014335745686652409
5.12925e-06	0.014331626782181013
5.12950e-06	0.014327507877709601
5.12975e-06	0.014323388973238205
5.13000e-06	0.014319270068766807
5.13025e-06	0.014315151164295397
5.13050e-06	0.014311032259824
5.13075e-06	0.014306913355352602
5.13100e-06	0.014302794450881192
5.13125e-06	0.014298675546409796
5.13150e-06	0.014294556641938398
5.13175e-06	0.01430516306774204
5.13200e-06	0.014321387295195576
5.13225e-06	0.014337611522649167
5.13250e-06	0.014353835750102703
5.13275e-06	0.014370059977556238
5.13300e-06	0.01438628420500983
5.13325e-06	0.014402508432463365
5.13350e-06	0.014418732659916902
5.13375e-06	0.014434956887370492
5.13400e-06	0.014453921412889247
5.13425e-06	0.014482387434433296
5.13450e-06	0.014510853455977442
5.13475e-06	0.014539319477521493
5.13500e-06	0.014567785499065542
5.13525e-06	0.014596251520609688
5.13550e-06	0.01462471754215374
5.13575e-06	0.014653183563697788
5.13600e-06	0.014681649585241935
5.13625e-06	0.014710115606785985
5.13650e-06	0.014739594747920387
5.13675e-06	0.014769460400243148
5.13700e-06	0.014799326052565906
5.13725e-06	0.014829191704888767
5.13750e-06	0.014859057357211528
5.13775e-06	0.014887644302987
5.13800e-06	0.01491179756129992
5.13825e-06	0.014935950819612761
5.13850e-06	0.0149601040779256
5.13875e-06	0.014984257336238522
5.13900e-06	0.015008410594551361
5.13925e-06	0.015028298940700307
5.13950e-06	0.015046560197328107
5.13975e-06	0.015064821453955846
5.14000e-06	0.015083082710583584
5.14025e-06	0.015101343967211385
5.14050e-06	0.015119605223839124
5.14075e-06	0.015137866480466923
5.14100e-06	0.015156127737094661
5.14125e-06	0.015175354693184775
5.14150e-06	0.015194950069400717
5.14175e-06	0.015214545445616592
5.14200e-06	0.015234140821832467
5.14225e-06	0.01525373619804841
5.14250e-06	0.015273331574264285
5.14275e-06	0.01529292695048016
5.14300e-06	0.015312522326696101
5.14325e-06	0.015334377949852157
5.14350e-06	0.01535709587074613
5.14375e-06	0.01537981379164018
5.14400e-06	0.015402531712534152
5.14425e-06	0.015425249633428124
5.14450e-06	0.015447967554322175
5.14475e-06	0.015470685475216147
5.14500e-06	0.015493403396110196
5.14525e-06	0.015516121317004168
5.14550e-06	0.015538839237898141
5.14575e-06	0.015561557158792191
5.14600e-06	0.015582783891406342
5.14625e-06	0.015603441726765267
5.14650e-06	0.01562409956212426
5.14675e-06	0.015644757397483184
5.14700e-06	0.015665415232842105
5.14725e-06	0.0156860730682011
5.14750e-06	0.01570673090356002
5.14775e-06	0.015727388738918945
5.14800e-06	0.01574804657427794
5.14825e-06	0.01576870440963686
5.14850e-06	0.015789362244995785
5.14875e-06	0.015805047757201728
5.14900e-06	0.01581883629835977
5.14925e-06	0.015832624839517855
5.14950e-06	0.01583920507180893
5.14975e-06	0.015843035291117462
5.15000e-06	0.015846865510426012
5.15025e-06	0.015836710763164348
5.15050e-06	0.015821220667440586
5.15075e-06	0.015805730571716768
5.15100e-06	0.015790240475993006
5.15125e-06	0.01577475038026924
5.15150e-06	0.015753325206103497
5.15175e-06	0.015711321203337333
5.15200e-06	0.01566931720057117
