Time(s)	Current(A)
3.75000e-06	-0.0021044028825632495
3.75025e-06	-0.002133237361226803
3.75050e-06	-0.0021630579144397036
3.75075e-06	-0.002193250128370899
3.75100e-06	-0.0022234423423021458
3.75125e-06	-0.002253974530883095
3.75150e-06	-0.002285669300742409
3.75175e-06	-0.0023173640706016696
3.75200e-06	-0.002349026898066283
3.75225e-06	-0.002380580494945328
3.75250e-06	-0.0024121340918243197
3.75275e-06	-0.002443687881867929
3.75300e-06	-0.002475242332459334
3.75325e-06	-0.002506796783050739
3.75350e-06	-0.002538056341594703
3.75375e-06	-0.0025683074838531482
3.75400e-06	-0.002598558626111594
3.75425e-06	-0.0026282425318479457
3.75450e-06	-0.002655986708955955
3.75475e-06	-0.002683730886063965
3.75500e-06	-0.0027109101182840336
3.75525e-06	-0.0027361574583746064
3.75550e-06	-0.0027602805192419506
3.75575e-06	-0.002780558981761195
3.75600e-06	-0.002800837444280405
3.75625e-06	-0.0028211159067996496
3.75650e-06	-0.002841394369318894
3.75675e-06	-0.002856827087896861
3.75700e-06	-0.0028704334002711378
3.75725e-06	-0.002884039712645414
3.75750e-06	-0.0028976460250196676
3.75775e-06	-0.0029099913766813847
3.75800e-06	-0.002918024732379374
3.75825e-06	-0.0029260580880773636
3.75850e-06	-0.00293316393778128
3.75875e-06	-0.0029370980771671017
3.75900e-06	-0.0029410322165529237
3.75925e-06	-0.002944160666542823
3.75950e-06	-0.002944533971674815
3.75975e-06	-0.0029449072768068067
3.76000e-06	-0.0029444820747525696
3.76025e-06	-0.0029413262882084868
3.76050e-06	-0.0029381705016643988
3.76075e-06	-0.002934502600740646
3.76100e-06	-0.0029290834675096116
3.76125e-06	-0.0029233184555665353
3.76150e-06	-0.002916370672744582
3.76175e-06	-0.0029091013499456583
3.76200e-06	-0.0029007324852901636
3.76225e-06	-0.002892101083651743
3.76250e-06	-0.002882571907483599
3.76275e-06	-0.0028728889284215923
3.76300e-06	-0.002862680003189301
3.76325e-06	-0.0028523774370445695
3.76350e-06	-0.0028417546553432013
3.76375e-06	-0.0028310868311776038
3.76400e-06	-0.0028202649792758937
3.76425e-06	-0.0028094683616903915
3.76450e-06	-0.0027987580356670094
3.76475e-06	-0.002788174408037093
3.76500e-06	-0.0027780240397116806
3.76525e-06	-0.0027680139878815202
3.76550e-06	-0.0027585985037264175
3.76575e-06	-0.0027497059290866
3.76600e-06	-0.002741409379392348
3.76625e-06	-0.00273382843577058
3.76650e-06	-0.002727407282203135
3.76675e-06	-0.0027225668495368884
3.76700e-06	-0.0027185777721254758
3.76725e-06	-0.002717499999076001
3.76750e-06	-0.002716422226026527
3.76775e-06	-0.002716328591309123
3.76800e-06	-0.0027196003275137505
3.76825e-06	-0.0027228720637183785
3.76850e-06	-0.0027275945149668225
3.76875e-06	-0.002737277848304113
3.76900e-06	-0.0027469611816414202
3.76925e-06	-0.002756644514978727
3.76950e-06	-0.0027663278483160175
3.76975e-06	-0.0027776227957546544
3.77000e-06	-0.0027944288375764915
3.77025e-06	-0.002811234879398301
3.77050e-06	-0.002828040921220138
3.77075e-06	-0.0028448469630419754
3.77100e-06	-0.0028627163898362193
3.77125e-06	-0.002884222180288345
3.77150e-06	-0.0029057279707405074
3.77175e-06	-0.002927757377644058
3.77200e-06	-0.0029515773494736704
3.77225e-06	-0.002975397321303323
3.77250e-06	-0.0029995403520858273
3.77275e-06	-0.0030247881190325803
3.77300e-06	-0.0030500358859792904
3.77325e-06	-0.0030753517522150112
3.77350e-06	-0.003100900491573794
3.77375e-06	-0.0031264492309325334
3.77400e-06	-0.0031518245963150456
3.77425e-06	-0.0031766070900255635
3.77450e-06	-0.003201115799307394
3.77475e-06	-0.003224688272162843
3.77500e-06	-0.0032478551521154357
3.77525e-06	-0.0032696350618453933
3.77550e-06	-0.003290683755899045
3.77575e-06	-0.003309231976295087
3.77600e-06	-0.003327780196691129
3.77625e-06	-0.0033452074304418473
3.77650e-06	-0.003358801325181793
3.77675e-06	-0.003372395219921739
3.77700e-06	-0.003384455809474639
3.77725e-06	-0.0033912730907208165
3.77750e-06	-0.0033980903719670057
3.77775e-06	-0.003404907653213195
3.77800e-06	-0.0034117249344593724
3.77825e-06	-0.00341238499637161
3.77850e-06	-0.003410724344740783
3.77875e-06	-0.0034090636931099596
3.77900e-06	-0.0034074030414791333
3.77925e-06	-0.00340424470303614
3.77950e-06	-0.003395964857296731
3.77975e-06	-0.003387685011557336
3.78000e-06	-0.003378494842689934
3.78025e-06	-0.003366191722233298
3.78050e-06	-0.0033532401746764508
3.78075e-06	-0.003338071258242401
3.78100e-06	-0.003322474201332779
3.78125e-06	-0.0033051574608585323
3.78150e-06	-0.003286733046861589
3.78175e-06	-0.0032672984405946663
3.78200e-06	-0.003246951821802508
3.78225e-06	-0.0032257944920590495
3.78250e-06	-0.003203940952801976
3.78275e-06	-0.003181522290987779
3.78300e-06	-0.0031586741245794294
3.78325e-06	-0.0031355280997830883
3.78350e-06	-0.0031122146544404847
3.78375e-06	-0.0030888643538614638
3.78400e-06	-0.0030656076885690006
3.78425e-06	-0.0030425771951845793
3.78450e-06	-0.003019913861854049
3.78475e-06	-0.002997768865286252
3.78500e-06	-0.0029764026416490724
3.78525e-06	-0.00295601156670851
3.78550e-06	-0.002935973877557296
3.78575e-06	-0.002917425737696034
3.78600e-06	-0.0029001336265916506
3.78625e-06	-0.0028839185691675252
3.78650e-06	-0.0028675325363709744
3.78675e-06	-0.0028490640962911358
3.78700e-06	-0.0028275541110028253
3.78725e-06	-0.0028030887532026127
3.78750e-06	-0.002775962087993347
3.78775e-06	-0.002746468233159248
3.78800e-06	-0.0027148885797289466
3.78825e-06	-0.002681310556668505
3.78850e-06	-0.0026451519945377582
3.78875e-06	-0.0026054150403847197
3.78900e-06	-0.0025616992592279236
3.78925e-06	-0.0025142580331655937
3.78950e-06	-0.002463475427397342
3.78975e-06	-0.0024094737688284146
3.79000e-06	-0.002352519551685154
3.79025e-06	-0.0022947656595881344
3.79050e-06	-0.0022332811717368376
3.79075e-06	-0.0021683906892740047
3.79100e-06	-0.0021025428042108258
3.79125e-06	-0.002032907595316009
3.79150e-06	-0.0019611030193513596
3.79175e-06	-0.0018875692315956263
3.79200e-06	-0.0018127416112053668
3.79225e-06	-0.001736979180501553
3.79250e-06	-0.0016603782780197569
3.79275e-06	-0.0015828722230466663
3.79300e-06	-0.0015046284438923795
3.79325e-06	-0.0014260713721108388
3.79350e-06	-0.0013476763841420412
3.79375e-06	-0.001269918931213294
3.79400e-06	-0.0011932710224001589
3.79425e-06	-0.0011181572248265834
3.79450e-06	-0.0010448373219504278
3.79475e-06	-0.0009734690607421649
3.79500e-06	-0.0009043568047873352
3.79525e-06	-0.0008379657818804949
3.79550e-06	-0.0007747932974624007
3.79575e-06	-0.0007153363999199993
3.79600e-06	-0.0006600924855944499
3.79625e-06	-0.0006095563253397517
3.79650e-06	-0.0005641847904369481
3.79675e-06	-0.0005243068079717808
3.79700e-06	-0.000490088397678154
3.79725e-06	-0.00046161725931596404
3.79750e-06	-0.00043897244823711896
3.79775e-06	-0.0004222329324819404
3.79800e-06	-0.00041147779691922174
3.79825e-06	-0.0004067844850618905
3.79850e-06	-0.0004082067288183841
3.79875e-06	-0.00041571800759727023
3.79900e-06	-0.00042918987680677764
3.79925e-06	-0.00044844473986489845
3.79950e-06	-0.00047329966879012966
3.79975e-06	-0.000503571593903736
3.80000e-06	-0.0005390775678816703
3.80025e-06	-0.0005796336703212289
3.80050e-06	-0.0006250410287404067
3.80075e-06	-0.000675050652523744
3.80100e-06	-0.0007297656084410981
3.80125e-06	-0.0007890168162994222
3.80150e-06	-0.0008497749975024195
3.80175e-06	-0.0009156864423376726
3.80200e-06	-0.0009827905049455449
3.80225e-06	-0.0010539728572034374
3.80250e-06	-0.001126013406692616
3.80275e-06	-0.0012009886574469943
3.80300e-06	-0.0012764332717509627
3.80325e-06	-0.0013534829271251022
3.80350e-06	-0.0014305953522021453
3.80375e-06	-0.0015079224252881984
3.80400e-06	-0.0015849052791215247
3.80425e-06	-0.001660711036781815
3.80450e-06	-0.0017357530085865853
3.80475e-06	-0.0018081831293676493
3.80500e-06	-0.0018793959446279456
3.80525e-06	-0.001946446047725986
3.80550e-06	-0.0020113006950730427
3.80575e-06	-0.002068647736317351
3.80600e-06	-0.002125994777561562
3.80625e-06	-0.0021808670295350974
3.80650e-06	-0.0022272764632426923
3.80675e-06	-0.002271801611751098
3.80700e-06	-0.0023098832366066314
3.80725e-06	-0.002347964861462229
3.80750e-06	-0.002383527690647353
3.80775e-06	-0.002410477216768526
3.80800e-06	-0.0024374267428897453
3.80825e-06	-0.002462175940244784
3.80850e-06	-0.0024794008676775896
3.80875e-06	-0.002495260244567185
3.80900e-06	-0.0025064499688858682
3.80925e-06	-0.002516306752351767
3.80950e-06	-0.0025216053957247153
3.80975e-06	-0.002525521472512402
3.81000e-06	-0.0025247097084733017
3.81025e-06	-0.0025226185804072517
3.81050e-06	-0.002516152524187013
3.81075e-06	-0.002508946691588407
3.81100e-06	-0.00249876916809306
3.81125e-06	-0.0024866502289269438
3.81150e-06	-0.0024726423442416497
3.81175e-06	-0.0024567987489977697
3.81200e-06	-0.0024391746000904605
3.81225e-06	-0.0024198688808833866
3.81250e-06	-0.0023991353149721596
3.81275e-06	-0.002377346236998057
3.81300e-06	-0.0023547771879062636
3.81325e-06	-0.0023315766750214057
3.81350e-06	-0.002307866161152561
3.81375e-06	-0.002283767491513311
3.81400e-06	-0.0022594037620312364
3.81425e-06	-0.002234925266211476
3.81450e-06	-0.0022105794862724696
3.81475e-06	-0.0021866884038657525
3.81500e-06	-0.0021635130455068953
3.81525e-06	-0.0021412347236736884
3.81550e-06	-0.0021200178694819765
3.81575e-06	-0.002100027146877991
3.81600e-06	-0.002081410647321573
3.81625e-06	-0.002064063621983635
3.81650e-06	-0.0020470056228555026
3.81675e-06	-0.0020287036992494597
3.81700e-06	-0.002008389148094746
3.81725e-06	-0.0019861398645242227
3.81750e-06	-0.0019622022887215208
3.81775e-06	-0.0019368231948282166
3.81800e-06	-0.0019102387833434774
3.81825e-06	-0.0018825269474830964
3.81850e-06	-0.0018532172009821436
3.81875e-06	-0.0018211958219746822
3.81900e-06	-0.0017860002105573886
3.81925e-06	-0.0017499803747264703
3.81950e-06	-0.0017106824466357944
3.81975e-06	-0.0016692553674586756
3.82000e-06	-0.0016259214519307656
3.82025e-06	-0.0015820749874029005
3.82050e-06	-0.0015360318331456757
3.82075e-06	-0.001487990464667528
3.82100e-06	-0.001437883001427427
3.82125e-06	-0.001385973524076902
3.82150e-06	-0.00133259266318259
3.82175e-06	-0.0012780707416941237
3.82200e-06	-0.0012227341272322823
3.82225e-06	-0.0011668470267354872
3.82250e-06	-0.0011104584718613373
3.82275e-06	-0.0010534814989882418
3.82300e-06	-0.000996017351280004
3.82325e-06	-0.0009383751209092729
3.82350e-06	-0.0008809053607504969
3.82375e-06	-0.0008239586874122057
3.82400e-06	-0.000767883032877505
3.82425e-06	-0.0007129873626099963
3.82450e-06	-0.0006594458595761012
3.82475e-06	-0.000607347659982113
3.82500e-06	-0.000556899627522455
3.82525e-06	-0.0005084388234129387
3.82550e-06	-0.0004623283047680282
3.82575e-06	-0.00041893107707971565
3.82600e-06	-0.0003786136397948299
3.82625e-06	-0.00034179024180119524
3.82650e-06	-0.00030901794026062226
3.82675e-06	-0.00028086101284359737
3.82700e-06	-0.0002576033522091154
3.82725e-06	-0.0002392993826722872
3.82750e-06	-0.00022596330828409457
3.82775e-06	-0.00021760926830252216
3.82800e-06	-0.00021425355691960787
3.82825e-06	-0.00021594241839822958
3.82850e-06	-0.00022281146850705182
3.82875e-06	-0.00023500087498208315
3.82900e-06	-0.00025247514154006233
3.82925e-06	-0.0002750550379805902
3.82950e-06	-0.0003025361277390383
3.82975e-06	-0.00033471396575488464
3.83000e-06	-0.00037138544204978513
3.83025e-06	-0.0004123662431635272
3.83050e-06	-0.0004575280366655775
3.83075e-06	-0.0005067453253112629
3.83100e-06	-0.0005597825626285397
3.83125e-06	-0.0006166411037199469
3.83150e-06	-0.000677116797037282
3.83175e-06	-0.0007387458671851023
3.83200e-06	-0.0008043190381990685
3.83225e-06	-0.0008707598693133667
3.83250e-06	-0.0009401677610283121
3.83275e-06	-0.0010101518209313198
3.83300e-06	-0.001082106152292321
3.83325e-06	-0.0011542639122794672
3.83350e-06	-0.0012271173191709408
3.83375e-06	-0.001299788146038364
3.83400e-06	-0.0013718346201263474
3.83425e-06	-0.0014433267426469463
3.83450e-06	-0.001512923198079421
3.83475e-06	-0.0015815900402679842
3.83500e-06	-0.0016470779661627644
3.83525e-06	-0.0017112101402250424
3.83550e-06	-0.0017707061695051685
3.83575e-06	-0.0018279283533414298
3.83600e-06	-0.0018773748687699531
3.83625e-06	-0.0019268213841984764
3.83650e-06	-0.0019737983170183887
3.83675e-06	-0.002012330236338813
3.83700e-06	-0.0020508621556592378
3.83725e-06	-0.002087114118511273
3.83750e-06	-0.0021155695156254307
3.83775e-06	-0.0021440249127396846
3.83800e-06	-0.002170319193493125
3.83825e-06	-0.002189223295527992
3.83850e-06	-0.002206325145841077
3.83875e-06	-0.002217263995141223
3.83900e-06	-0.002228202844441369
3.83925e-06	-0.002237528277941313
3.83950e-06	-0.002241336455948916
3.83975e-06	-0.0022438133525622805
3.84000e-06	-0.002241737783789421
3.84025e-06	-0.002238430106065463
3.84050e-06	-0.0022309090941988337
3.84075e-06	-0.002222667007795301
3.84100e-06	-0.0022115281412307406
3.84125e-06	-0.002198498078931582
3.84150e-06	-0.002183636943885076
3.84175e-06	-0.00216700498654679
3.84200e-06	-0.002148664858603661
3.84225e-06	-0.0021287182254166345
3.84250e-06	-0.0021074062226484223
3.84275e-06	-0.0020850781243747837
3.84300e-06	-0.0020619978145114265
3.84325e-06	-0.002038315034157153
3.84350e-06	-0.002014155639327608
3.84375e-06	-0.0019896452837836194
3.84400e-06	-0.001964911610468196
3.84425e-06	-0.0019401062343621536
3.84450e-06	-0.00191546850999605
3.84475e-06	-0.0018913053741733965
3.84500e-06	-0.0018678698894425934
3.84525e-06	-0.0018453440752435651
3.84550e-06	-0.0018238946909983327
3.84575e-06	-0.0018036886762783308
3.84600e-06	-0.0017848919960521672
3.84625e-06	-0.001767840485286605
3.84650e-06	-0.0017526949101245818
3.84675e-06	-0.0017384907180747957
3.84700e-06	-0.0017275056906969543
3.84725e-06	-0.00171652066331915
3.84750e-06	-0.00170703856746475
3.84775e-06	-0.001702695913779591
3.84800e-06	-0.0016983532600944467
3.84825e-06	-0.0016940106064093025
3.84850e-06	-0.0016896679527241434
3.84875e-06	-0.0016910044635917217
3.84900e-06	-0.001694481504683907
3.84925e-06	-0.0016979585457761038
3.84950e-06	-0.001701435586868289
3.84975e-06	-0.001706243192304716
3.85000e-06	-0.001715600811093626
3.85025e-06	-0.001724958429882504
3.85050e-06	-0.0017352263191186279
3.85075e-06	-0.001748606979794094
3.85100e-06	-0.00176198764046956
3.85125e-06	-0.0017760877952447702
3.85150e-06	-0.001792648340435939
3.85175e-06	-0.0018092088856271078
3.85200e-06	-0.0018263016079722468
3.85225e-06	-0.0018452141695204996
3.85250e-06	-0.0018641267310687526
3.85275e-06	-0.0018833349924436652
3.85300e-06	-0.0019035544323947472
3.85325e-06	-0.0019237738723458294
3.85350e-06	-0.0019440415156358965
3.85375e-06	-0.001964473995625922
3.85400e-06	-0.001984906475615947
3.85425e-06	-0.002005192642229044
3.85450e-06	-0.002024978473911428
3.85475e-06	-0.0020444993979548084
3.85500e-06	-0.002063114440745579
3.85525e-06	-0.002081337587756883
3.85550e-06	-0.0020982206033895697
3.85575e-06	-0.002114584050246148
3.85600e-06	-0.002129170773655741
3.85625e-06	-0.0021429844788209734
3.85650e-06	-0.0021541547617809115
3.85675e-06	-0.002164217948383042
3.85700e-06	-0.0021704952953666154
3.85725e-06	-0.002175357588996116
3.85750e-06	-0.0021753809496706956
3.85775e-06	-0.0021754043103452757
3.85800e-06	-0.002173730825687763
3.85825e-06	-0.0021662547889404666
3.85850e-06	-0.0021587787521931447
3.85875e-06	-0.002149445596206867
3.85900e-06	-0.002133761813609431
3.85925e-06	-0.002118078031012048
3.85950e-06	-0.002101240915484339
3.85975e-06	-0.0020799353547431066
3.86000e-06	-0.0020563413916545067
3.86025e-06	-0.002030571934841416
3.86050e-06	-0.002002661620923165
3.86075e-06	-0.0019726105591699934
3.86100e-06	-0.0019405146896267923
3.86125e-06	-0.0019065618944294493
3.86150e-06	-0.0018709574775246562
3.86175e-06	-0.0018339065627093582
3.86200e-06	-0.00179561324649621
3.86225e-06	-0.0017562667596767428
3.86250e-06	-0.0017160073697070177
3.86275e-06	-0.0016749535985293718
3.86300e-06	-0.001633284051818662
3.86325e-06	-0.0015912348001148116
3.86350e-06	-0.0015490529404651005
3.86375e-06	-0.001506985363426359
3.86400e-06	-0.0014652783163276505
3.86425e-06	-0.0014241688849179997
3.86450e-06	-0.0013838630516014548
3.86475e-06	-0.001344553537649369
3.86500e-06	-0.0013064706213402352
3.86525e-06	-0.0012698805036076891
3.86550e-06	-0.0012350563058494562
3.86575e-06	-0.001202270841846055
3.86600e-06	-0.0011717827235472385
3.86625e-06	-0.0011436306158620873
3.86650e-06	-0.001117082816838866
3.86675e-06	-0.0010908943092306814
3.86700e-06	-0.0010644411252326796
3.86725e-06	-0.00103781359473123
3.86750e-06	-0.0010112465537709015
3.86775e-06	-0.0009849748889603875
3.86800e-06	-0.0009592243037922789
3.86825e-06	-0.0009340826708543438
3.86850e-06	-0.0009091555321143069
3.86875e-06	-0.0008837268166536674
3.86900e-06	-0.0008574696558114836
3.86925e-06	-0.0008305045272857897
3.86950e-06	-0.0008030285259986987
3.86975e-06	-0.0007752467661441985
3.87000e-06	-0.0007474600805934095
3.87025e-06	-0.0007196565510738217
3.87050e-06	-0.0006916600106437362
3.87075e-06	-0.0006630034478534616
3.87100e-06	-0.0006341376614997157
3.87125e-06	-0.0006044705413791476
3.87150e-06	-0.0005744683044285264
3.87175e-06	-0.0005443270896508239
3.87200e-06	-0.0005142392625221376
3.87225e-06	-0.00048434323480209723
3.87250e-06	-0.00045458807128888416
3.87275e-06	-0.0004247967097265332
3.87300e-06	-0.00039494480907039357
3.87325e-06	-0.0003651835809611588
3.87350e-06	-0.0003356997133010994
3.87375e-06	-0.00030667985553998914
3.87400e-06	-0.00027830844069338186
3.87425e-06	-0.00025073596736427113
3.87450e-06	-0.0002239943686900888
3.87475e-06	-0.00019803655536669668
3.87500e-06	-0.00017291112627158717
3.87525e-06	-0.0001487766193635476
3.87550e-06	-0.0001258137935946037
3.87575e-06	-0.0001042033811502698
3.87600e-06	-8.412330973359968e-05
3.87625e-06	-6.570735323957854e-05
3.87650e-06	-4.8927387669823564e-05
3.87675e-06	-3.362123587925912e-05
3.87700e-06	-1.9707926567865263e-05
3.87725e-06	-7.227635983526534e-06
3.87750e-06	3.753094894228051e-06
3.87775e-06	1.3167757827573855e-05
3.87800e-06	2.095160810124581e-05
3.87825e-06	2.7067566740622626e-05
3.87850e-06	3.157996192416738e-05
3.87875e-06	3.4637095174786537e-05
3.87900e-06	3.633637734409193e-05
3.87925e-06	3.6699341829717515e-05
3.87950e-06	3.573100588218848e-05
3.87975e-06	3.34364057650505e-05
3.88000e-06	2.9821684474135338e-05
3.88025e-06	2.4910318012112412e-05
3.88050e-06	1.878930071072887e-05
3.88075e-06	1.1598213241544068e-05
3.88100e-06	3.4447593974592414e-06
3.88125e-06	-5.610899101310664e-06
3.88150e-06	-1.55189485363574e-05
3.88175e-06	-2.622956345220321e-05
3.88200e-06	-3.769222784405327e-05
3.88225e-06	-4.9845574005736613e-05
3.88250e-06	-6.258844799741063e-05
3.88275e-06	-7.581783156477056e-05
3.88300e-06	-8.943266166009148e-05
3.88325e-06	-0.00010314413549895384
3.88350e-06	-0.0001171860934100578
3.88375e-06	-0.00013122805132116178
3.88400e-06	-0.0001452343341518831
3.88425e-06	-0.00015911862206148772
3.88450e-06	-0.00017300290997109233
3.88475e-06	-0.00018668866367102809
3.88500e-06	-0.00019969550747215024
3.88525e-06	-0.0002124336621084754
3.88550e-06	-0.0002242530041433443
3.88575e-06	-0.00023572123226708915
3.88600e-06	-0.00024598878716587024
3.88625e-06	-0.00025604587061409123
3.88650e-06	-0.0002655222986292672
3.88675e-06	-0.00027547430979823535
3.88700e-06	-0.0002857870107920644
3.88725e-06	-0.0002973331309172439
3.88750e-06	-0.0003088792510424625
3.88775e-06	-0.0003206854035967033
3.88800e-06	-0.00033338076607768147
3.88825e-06	-0.00034607612855870265
3.88850e-06	-0.0003591578432159382
3.88875e-06	-0.00037356073228045133
3.88900e-06	-0.0003884902263601828
3.88925e-06	-0.00040522050509057524
3.88950e-06	-0.0004219507838210244
3.88975e-06	-0.00043910098694843367
3.89000e-06	-0.00045768716844066796
3.89025e-06	-0.0004762733499329652
3.89050e-06	-0.000495313417664677
3.89075e-06	-0.0005159056000736953
3.89100e-06	-0.0005364977824827834
3.89125e-06	-0.0005574747487035246
3.89150e-06	-0.0005797675261337907
3.89175e-06	-0.0006020603035641323
3.89200e-06	-0.0006245014006489172
3.89225e-06	-0.0006474496933538372
3.89250e-06	-0.0006703979860588349
3.89275e-06	-0.0006934383436290785
3.89300e-06	-0.0007167935272863373
3.89325e-06	-0.0007401487109436752
3.89350e-06	-0.0007633615630478987
