Time(s)	Current(A)
1.05500e-05	-0.008173632702627573
1.05503e-05	-0.008164927896614806
1.05505e-05	-0.008156223090602098
1.05508e-05	-0.008147518284589332
1.05510e-05	-0.008138813478576565
1.05512e-05	-0.008130108672563858
1.05515e-05	-0.008119979673369469
1.05518e-05	-0.008108417702743865
1.05520e-05	-0.008096855732118338
1.05523e-05	-0.008085293761492734
1.05525e-05	-0.008073731790867128
1.05527e-05	-0.008062169820241601
1.05530e-05	-0.008050607849615997
1.05533e-05	-0.008037609671928833
1.05535e-05	-0.008023166434881001
1.05538e-05	-0.008008723197833073
1.05540e-05	-0.007994279960785144
1.05543e-05	-0.007979836723737215
1.05545e-05	-0.007965393486689383
1.05548e-05	-0.007950950249641455
1.05550e-05	-0.00793489586759259
1.05553e-05	-0.007918839006723952
1.05555e-05	-0.007902782145855203
1.05558e-05	-0.007886725284986457
1.05560e-05	-0.007870668424117818
1.05563e-05	-0.00785461156324907
1.05565e-05	-0.007838559463719875
1.05568e-05	-0.007822512154877642
1.05570e-05	-0.007806464846035302
1.05573e-05	-0.00779086397229269
1.05575e-05	-0.007775712285326374
1.05578e-05	-0.007760560598359955
1.05580e-05	-0.007745925251885391
1.05583e-05	-0.007731809428452684
1.05585e-05	-0.007718289445003057
1.05588e-05	-0.0077053689740947725
1.05590e-05	-0.0076932275982015755
1.05593e-05	-0.00768187011940414
1.05595e-05	-0.007671660373408978
1.05597e-05	-0.007662605434456911
1.05600e-05	-0.007653550495504783
1.05603e-05	-0.007645942253865358
1.05605e-05	-0.007639789626496632
1.05608e-05	-0.007633636999127863
1.05610e-05	-0.007629893454828628
1.05612e-05	-0.007628573842380602
1.05615e-05	-0.007627254229932568
1.05618e-05	-0.007625934617484533
1.05620e-05	-0.007624615005036507
1.05623e-05	-0.007623295392588472
1.05625e-05	-0.007621975780140437
1.05628e-05	-0.00762658544452647
1.05630e-05	-0.007631204231374957
1.05633e-05	-0.007635823018223475
1.05635e-05	-0.007640441805071993
1.05638e-05	-0.00764506059192048
1.05640e-05	-0.0076496793787689974
1.05643e-05	-0.007656455896721881
1.05645e-05	-0.007665403445311357
1.05648e-05	-0.007674350993900893
1.05650e-05	-0.007683298542490429
1.05653e-05	-0.007692246091079905
1.05655e-05	-0.007701193639669441
1.05658e-05	-0.007710141188258977
1.05660e-05	-0.007719884394948243
1.05663e-05	-0.00773042816390763
1.05665e-05	-0.0077409719328670155
1.05668e-05	-0.00775151570182633
1.05670e-05	-0.007762059470785716
1.05673e-05	-0.007772603239745102
1.05675e-05	-0.007783147008704416
1.05678e-05	-0.007793192459267331
1.05680e-05	-0.007802736519965908
1.05682e-05	-0.0078122805806644215
1.05685e-05	-0.007821824641362999
1.05688e-05	-0.007829421641278195
1.05690e-05	-0.007837015645551558
1.05693e-05	-0.007844609649824972
1.05695e-05	-0.007851735090673167
1.05697e-05	-0.007858389080027891
1.05700e-05	-0.007865043069382661
1.05703e-05	-0.0078725347164433
1.05705e-05	-0.007880869184251647
1.05708e-05	-0.007889203652060053
1.05710e-05	-0.00789753811986846
1.05713e-05	-0.007905872587676865
1.05715e-05	-0.007914207055485213
1.05718e-05	-0.007922541523293618
1.05720e-05	-0.007930875991102024
1.05723e-05	-0.007942303527319365
1.05725e-05	-0.007953735822363629
1.05728e-05	-0.007965168117407892
1.05730e-05	-0.007976600412452078
1.05733e-05	-0.00798803270749634
1.05735e-05	-0.007999465002540604
1.05738e-05	-0.00801089729758479
1.05740e-05	-0.008023759036037283
1.05743e-05	-0.008038059028509216
1.05745e-05	-0.008052359020981054
1.05748e-05	-0.008066659013452987
1.05750e-05	-0.00808095900592492
1.05753e-05	-0.008095258998396757
1.05755e-05	-0.00810955899086869
1.05758e-05	-0.008123858983340624
1.05760e-05	-0.00813814208942416
1.05763e-05	-0.008152408205037442
1.05765e-05	-0.008166674320650723
1.05767e-05	-0.008180940436263908
1.05770e-05	-0.00819520655187719
1.05773e-05	-0.008209472667490472
1.05775e-05	-0.008223738783103658
1.05778e-05	-0.00823800489871694
1.05780e-05	-0.008251186668348941
1.05782e-05	-0.008263277408453375
1.05785e-05	-0.008275368148557892
1.05788e-05	-0.008286541646356416
1.05790e-05	-0.008296792248273852
1.05793e-05	-0.008305971870182977
1.05795e-05	-0.008314073910920844
1.05798e-05	-0.008319864779586015
1.05800e-05	-0.008323330230886153
1.05803e-05	-0.008326795682186312
1.05805e-05	-0.0083272162449407
1.05808e-05	-0.008324573151473953
1.05810e-05	-0.00832193005800719
1.05813e-05	-0.008316244397147688
1.05815e-05	-0.008307497415526938
1.05818e-05	-0.00829875043390613
1.05820e-05	-0.008285638570434035
1.05823e-05	-0.008268134921437801
1.05825e-05	-0.008250631272441447
1.05828e-05	-0.008233127623445094
1.05830e-05	-0.00821562397444886
1.05833e-05	-0.00819352583514353
1.05835e-05	-0.008166804886626208
1.05838e-05	-0.008140083938109067
1.05840e-05	-0.008113362989591744
1.05843e-05	-0.008086642041074421
1.05845e-05	-0.008057044131696275
1.05848e-05	-0.008024551528831374
1.05850e-05	-0.007992058925966473
1.05853e-05	-0.007958427874912046
1.05855e-05	-0.00792365135865333
1.05858e-05	-0.0078882369895418
1.05860e-05	-0.007852180836065807
1.05863e-05	-0.00781584382307287
1.05865e-05	-0.007779174778879437
1.05867e-05	-0.0077425093759113115
1.05870e-05	-0.007706055294810089
1.05873e-05	-0.007670017207303262
1.05875e-05	-0.0076345793317887
1.05878e-05	-0.0075999004873785175
1.05880e-05	-0.007566150345377548
1.05883e-05	-0.007533536304238742
1.05885e-05	-0.007502285599517107
1.05888e-05	-0.007472627337996253
1.05890e-05	-0.007444789927253164
1.05893e-05	-0.007419460433272907
1.05895e-05	-0.007395677714346239
1.05898e-05	-0.007373484869187779
1.05900e-05	-0.0073528916972486645
1.05903e-05	-0.007333730908844482
1.05905e-05	-0.007316011332709205
1.05908e-05	-0.007299928749748728
1.05910e-05	-0.007285493249842188
1.05913e-05	-0.007273190193224667
1.05915e-05	-0.007263032723564692
1.05918e-05	-0.007252875253904648
1.05920e-05	-0.00724552618949881
1.05923e-05	-0.0072410028404196105
1.05925e-05	-0.00723647949134038
1.05928e-05	-0.007231956142261151
1.05930e-05	-0.007227432793181951
1.05933e-05	-0.007222909444102722
1.05935e-05	-0.0072247069929009386
1.05938e-05	-0.007226514266689817
1.05940e-05	-0.007228321540478706
1.05943e-05	-0.007230128814267597
1.05945e-05	-0.007231936088056475
1.05948e-05	-0.007236003768840049
1.05950e-05	-0.007242345789012388
1.05952e-05	-0.007248687809184685
1.05955e-05	-0.007255029829357024
1.05958e-05	-0.0072613718495293635
1.05960e-05	-0.007267713869701659
1.05963e-05	-0.007274055889873999
1.05965e-05	-0.007282289810868465
1.05968e-05	-0.007290526642638958
1.05970e-05	-0.007298763474409396
1.05973e-05	-0.00730700030617989
1.05975e-05	-0.0073152371379503825
1.05978e-05	-0.007323473969720821
1.05980e-05	-0.0073313967816253656
1.05983e-05	-0.00733900363815031
1.05985e-05	-0.007346610494675203
1.05988e-05	-0.007353046989263179
1.05990e-05	-0.007359481683195713
1.05993e-05	-0.007365405746673096
1.05995e-05	-0.007370816032339681
1.05998e-05	-0.007376779680888658
1.06000e-05	-0.00738330010306414
1.06003e-05	-0.007390928991869209
1.06005e-05	-0.007399673179522274
1.06008e-05	-0.0074084173671752785
1.06010e-05	-0.007418148895955583
1.06013e-05	-0.007428873851504425
1.06015e-05	-0.007439598807053195
1.06018e-05	-0.007452676676742739
1.06020e-05	-0.007468121963150806
1.06023e-05	-0.007483567249558768
1.06025e-05	-0.0074990125359668345
1.06028e-05	-0.007514457822374901
1.06030e-05	-0.007529903108782863
1.06033e-05	-0.007548069405516243
1.06035e-05	-0.007568973483974989
1.06037e-05	-0.007589877562433594
1.06040e-05	-0.00761078164089234
1.06043e-05	-0.0076316857193510865
1.06045e-05	-0.007652589797809691
1.06048e-05	-0.007675239510457718
1.06050e-05	-0.007699645616802009
1.06053e-05	-0.007724051723146301
1.06055e-05	-0.007748457829490426
1.06058e-05	-0.0077728639358347175
1.06060e-05	-0.007797270042179009
1.06063e-05	-0.007821676148523134
1.06065e-05	-0.007845680828030572
1.06068e-05	-0.007869281606439984
1.06070e-05	-0.007892882384849238
1.06073e-05	-0.00791648316325865
1.06075e-05	-0.007940083941668064
1.06078e-05	-0.007963684720077316
1.06080e-05	-0.00798728549848673
1.06083e-05	-0.008006979967934194
1.06085e-05	-0.008022744051233472
1.06088e-05	-0.008038508134532855
1.06090e-05	-0.00805427221783224
1.06093e-05	-0.008070036301131516
1.06095e-05	-0.0080858003844309
1.06098e-05	-0.008101564467730284
1.06100e-05	-0.00811732855102956
1.06103e-05	-0.008133092634328945
1.06105e-05	-0.008143539987660717
1.06108e-05	-0.008148637840473556
1.06110e-05	-0.008153735693286429
1.06113e-05	-0.008158833546099302
1.06115e-05	-0.00816393139891214
1.06118e-05	-0.008169029251725014
1.06120e-05	-0.008174127104537885
1.06122e-05	-0.008179224957350724
1.06125e-05	-0.008184322810163597
1.06128e-05	-0.008185250685768091
1.06130e-05	-0.008181982881814357
1.06133e-05	-0.008178715077860601
1.06135e-05	-0.008175447273906844
1.06138e-05	-0.008172179469953088
1.06140e-05	-0.008168911665999356
1.06143e-05	-0.008165643862045598
1.06145e-05	-0.008162376058091843
1.06148e-05	-0.008159108254138108
1.06150e-05	-0.008153547202572286
1.06153e-05	-0.008145678768580212
1.06155e-05	-0.008137810334588191
1.06158e-05	-0.008129941900596117
1.06160e-05	-0.008122073466604042
1.06163e-05	-0.008114205032612022
1.06165e-05	-0.008106336598619947
1.06168e-05	-0.008098468164627875
1.06170e-05	-0.008090599730635854
1.06173e-05	-0.008082348549562322
1.06175e-05	-0.00807371226228183
1.06178e-05	-0.008065075975001397
1.06180e-05	-0.008056439687720907
1.06183e-05	-0.008048589291931875
1.06185e-05	-0.008040740105273069
1.06188e-05	-0.00803289091861421
1.06190e-05	-0.008025552153506532
1.06193e-05	-0.008018726956018508
1.06195e-05	-0.008011619274206756
1.06198e-05	-0.008004227366932033
1.06200e-05	-0.007995106355393985
1.06203e-05	-0.007984245581969677
1.06205e-05	-0.00797338480854537
1.06207e-05	-0.007960725760497509
1.06210e-05	-0.007946257353859999
1.06213e-05	-0.007931788947222488
1.06215e-05	-0.007915276223740364
1.06218e-05	-0.007896706582925106
1.06220e-05	-0.007878136942109848
1.06222e-05	-0.00785650136763006
1.06225e-05	-0.007831780962091183
1.06228e-05	-0.007807060556552306
1.06230e-05	-0.00778234015101343
1.06233e-05	-0.0077576197454747205
1.06235e-05	-0.0077270225264923645
1.06238e-05	-0.007696416265762204
1.06240e-05	-0.007665810005032251
1.06243e-05	-0.007635203744302091
1.06245e-05	-0.00760272917460339
1.06248e-05	-0.00756837478030185
1.06250e-05	-0.00753337394488144
1.06253e-05	-0.007497722683894516
1.06255e-05	-0.007461746113310792
1.06258e-05	-0.007425214987148149
1.06260e-05	-0.007388271152031574
1.06263e-05	-0.0073510597140170955
1.06265e-05	-0.007313791364091832
1.06268e-05	-0.007276683566077209
1.06270e-05	-0.007239952855333435
1.06273e-05	-0.0072038085659228545
1.06275e-05	-0.007168413570219581
1.06278e-05	-0.007133863875997876
1.06280e-05	-0.007100267397929361
1.06283e-05	-0.007067807261422333
1.06285e-05	-0.007036707900910665
1.06288e-05	-0.007007197725401381
1.06290e-05	-0.006979504675379493
1.06292e-05	-0.0069538418373812595
1.06295e-05	-0.006930317288831213
1.06298e-05	-0.006908863074311681
1.06300e-05	-0.006889369626074849
1.06303e-05	-0.006871833959872088
1.06305e-05	-0.006856322178146112
1.06307e-05	-0.006842907853949717
1.06310e-05	-0.006831665027427403
1.06313e-05	-0.006822657757765926
1.06315e-05	-0.0068163923383423
1.06318e-05	-0.006811743874541766
1.06320e-05	-0.00680950650845005
1.06323e-05	-0.00680969510127141
1.06325e-05	-0.006809883694092769
1.06328e-05	-0.006813477805266469
1.06330e-05	-0.006820498425274789
1.06333e-05	-0.006827519045283062
1.06335e-05	-0.0068345396652913825
1.06338e-05	-0.006841560285299702
1.06340e-05	-0.006855195432986213
1.06343e-05	-0.006868840757428356
1.06345e-05	-0.006882486081870498
1.06348e-05	-0.006896131406312548
1.06350e-05	-0.006911772354966603
1.06353e-05	-0.006929421228196425
1.06355e-05	-0.006947070101426127
1.06358e-05	-0.006965673123294364
1.06360e-05	-0.006985236174855878
1.06363e-05	-0.00700479922641726
1.06365e-05	-0.007024702017410434
1.06368e-05	-0.007044946641876138
1.06370e-05	-0.007065191266341705
1.06373e-05	-0.007085302656623553
1.06375e-05	-0.0071052799915103425
1.06377e-05	-0.007124784739640331
1.06380e-05	-0.007143813988146162
1.06383e-05	-0.007162054624910453
1.06385e-05	-0.007179501789192538
1.06388e-05	-0.00719554384348877
1.06390e-05	-0.007210172127168255
1.06392e-05	-0.007224800410847641
1.06395e-05	-0.00723754469198546
1.06398e-05	-0.007248393358216297
1.06400e-05	-0.007259242024447134
1.06403e-05	-0.007267233541753133
1.06405e-05	-0.007272350299618274
1.06408e-05	-0.007277467057483415
1.06410e-05	-0.007282583815348521
1.06413e-05	-0.007287700573213662
1.06415e-05	-0.0072928173310788024
1.06418e-05	-0.007297934088943909
1.06420e-05	-0.0072954926855023725
1.06423e-05	-0.007293039653481028
1.06425e-05	-0.0072905866214597005
1.06428e-05	-0.007288133589438356
1.06430e-05	-0.007285680557417012
1.06433e-05	-0.007283227525395684
1.06435e-05	-0.007277884312656514
1.06438e-05	-0.007269633105086278
1.06440e-05	-0.0072613818975160995
1.06443e-05	-0.007253130689945864
1.06445e-05	-0.00724487948237563
1.06448e-05	-0.00723662827480545
1.06450e-05	-0.007226675662065236
1.06453e-05	-0.007215011157259035
1.06455e-05	-0.007203346652452914
1.06458e-05	-0.007191682147646713
1.06460e-05	-0.007180017642840513
1.06462e-05	-0.007168353138034391
1.06465e-05	-0.007156189043724677
1.06468e-05	-0.007143522280607761
1.06470e-05	-0.0071308555174909305
1.06473e-05	-0.007118225003047144
1.06475e-05	-0.007105630960701262
1.06477e-05	-0.007093275184713841
1.06480e-05	-0.007081159143679381
1.06483e-05	-0.007069333943119391
1.06485e-05	-0.007058046025207132
1.06488e-05	-0.0070472869812014316
1.06490e-05	-0.007037132947437962
1.06493e-05	-0.007027685127274639
1.06495e-05	-0.0070191971476523205
1.06498e-05	-0.007012126054753921
1.06500e-05	-0.007006859494458571
1.06503e-05	-0.007003971648715066
1.06505e-05	-0.007002505514151973
1.06508e-05	-0.007002845352702682
1.06510e-05	-0.007005002295785484
1.06513e-05	-0.007009454627098153
1.06515e-05	-0.007016216494651163
1.06518e-05	-0.007022978362204129
1.06520e-05	-0.0070337965375204935
1.06523e-05	-0.007048696022333707
1.06525e-05	-0.007063595507146819
1.06528e-05	-0.007078494991960033
1.06530e-05	-0.007093394476773246
1.06533e-05	-0.007112541996589755
1.06535e-05	-0.007135963734886503
1.06538e-05	-0.007159385473183249
1.06540e-05	-0.007182807211479838
1.06543e-05	-0.007206228949776586
1.06545e-05	-0.007232933773339718
1.06547e-05	-0.007262941918016201
1.06550e-05	-0.007292950062692886
1.06553e-05	-0.007322958207369571
1.06555e-05	-0.007352966352046053
1.06558e-05	-0.007382974496722738
1.06560e-05	-0.0074141020948190915
1.06562e-05	-0.007446356046274029
1.06565e-05	-0.0074786099977291855
1.06568e-05	-0.007510863949184341
1.06570e-05	-0.007543117900639497
1.06573e-05	-0.007575371852094435
1.06575e-05	-0.007606539852105327
1.06578e-05	-0.007636615207227814
1.06580e-05	-0.007666690562350097
1.06583e-05	-0.007694951549522199
1.06585e-05	-0.00772138698558223
1.06588e-05	-0.007747822421642082
1.06590e-05	-0.0077692394990646054
1.06593e-05	-0.007785607286352913
1.06595e-05	-0.007801975073641109
1.06598e-05	-0.007818342860929417
1.06600e-05	-0.007834710648217724
1.06603e-05	-0.00785107843550592
1.06605e-05	-0.007867446222794228
1.06608e-05	-0.007883814010082535
1.06610e-05	-0.007900181797370731
1.06613e-05	-0.007910138611576554
1.06615e-05	-0.007913644937589698
1.06618e-05	-0.007917151263602817
1.06620e-05	-0.007920657589615961
1.06623e-05	-0.007924163915629105
1.06625e-05	-0.007927670241642225
1.06628e-05	-0.007931176567655369
1.06630e-05	-0.007934682893668513
1.06632e-05	-0.007938189219681632
1.06635e-05	-0.007937120113119372
1.06638e-05	-0.007931447372533708
1.06640e-05	-0.007925774631948084
1.06643e-05	-0.00792010189136242
1.06645e-05	-0.007914429150776756
1.06647e-05	-0.00790875641019113
1.06650e-05	-0.007903083669605467
1.06653e-05	-0.007897410929019803
1.06655e-05	-0.007891738188434139
1.06658e-05	-0.00788193300827646
1.06660e-05	-0.007872121470169198
1.06663e-05	-0.007862309932061936
1.06665e-05	-0.00785249839395474
1.06668e-05	-0.007842686855847476
1.06670e-05	-0.007832875317740214
1.06673e-05	-0.007823063779633018
1.06675e-05	-0.007813252241525754
1.06678e-05	-0.0078035684973050716
1.06680e-05	-0.007794013334650153
1.06683e-05	-0.007784458171995171
1.06685e-05	-0.007774903009340188
1.06688e-05	-0.00776534784668527
1.06690e-05	-0.007757548113281403
1.06693e-05	-0.007749751080686722
1.06695e-05	-0.007741954048092094
1.06698e-05	-0.007734157015497413
1.06700e-05	-0.007726208024751177
1.06703e-05	-0.0077181061392337935
1.06705e-05	-0.0077100042537163556
1.06708e-05	-0.007701902368198918
1.06710e-05	-0.007693800482681534
1.06713e-05	-0.0076856985971640954
1.06715e-05	-0.0076775967116466575
1.06717e-05	-0.007669494826129274
1.06720e-05	-0.007661392940611836
1.06723e-05	-0.007652458921733954
1.06725e-05	-0.007642687640501584
1.06728e-05	-0.0076329163592691466
1.06730e-05	-0.00762314507803671
1.06732e-05	-0.00761337379680434
1.06735e-05	-0.007603602515571904
1.06738e-05	-0.007593831234339467
1.06740e-05	-0.0075840599531070306
1.06743e-05	-0.00757428867187466
1.06745e-05	-0.007563885823108523
1.06748e-05	-0.007552847514035777
1.06750e-05	-0.007541809204963105
1.06753e-05	-0.0075307708958903576
1.06755e-05	-0.0075197325868176105
1.06758e-05	-0.007508694277744939
1.06760e-05	-0.007497655968672192
1.06763e-05	-0.007486617659599445
1.06765e-05	-0.007475579350526773
1.06768e-05	-0.0074654229071655556
1.06770e-05	-0.007455267820595629
1.06773e-05	-0.007445112734025772
1.06775e-05	-0.007434957647455845
1.06778e-05	-0.007424802560885919
1.06780e-05	-0.007414647474316061
1.06783e-05	-0.007404492387746135
1.06785e-05	-0.007394337301176209
1.06788e-05	-0.007385078384482569
1.06790e-05	-0.007376721161359257
1.06793e-05	-0.007369268723686046
1.06795e-05	-0.007362726648260704
1.06798e-05	-0.007356184572835317
1.06800e-05	-0.00735151644162073
1.06802e-05	-0.007348733804988215
1.06805e-05	-0.00734595116835568
1.06808e-05	-0.007345091529634631
1.06810e-05	-0.00734616674154702
1.06813e-05	-0.007347241953459416
1.06815e-05	-0.007351591187427081
1.06817e-05	-0.007359234623437096
1.06820e-05	-0.007366878059447164
1.06823e-05	-0.007374521495457231
1.06825e-05	-0.007382164931467298
1.06828e-05	-0.007389808367477314
1.06830e-05	-0.007397451803487381
1.06833e-05	-0.007413052038303451
1.06835e-05	-0.007428664515023622
1.06838e-05	-0.007444276991743898
1.06840e-05	-0.007459889468464174
1.06843e-05	-0.007475501945184344
1.06845e-05	-0.00749111442190462
1.06848e-05	-0.007509262368047483
1.06850e-05	-0.0075299614114064176
1.06853e-05	-0.007550660454765493
1.06855e-05	-0.007571359498124568
1.06858e-05	-0.0075920585414835035
1.06860e-05	-0.007612757584842578
1.06863e-05	-0.007633456628201654
1.06865e-05	-0.007654281875966614
1.06868e-05	-0.007675234106019903
1.06870e-05	-0.007696186336073192
1.06873e-05	-0.007717138566126338
1.06875e-05	-0.007738090796179627
1.06878e-05	-0.007759043026232915
1.06880e-05	-0.007779995256286062
1.06883e-05	-0.007799295389092575
1.06885e-05	-0.00781693324167193
1.06887e-05	-0.007834571094251166
1.06890e-05	-0.00785029608462083
1.06893e-05	-0.007864096422531483
1.06895e-05	-0.007877896760442041
1.06898e-05	-0.00788756995563313
1.06900e-05	-0.0078930905697633
1.06902e-05	-0.007898611183893428
1.06905e-05	-0.007904131798023595
1.06908e-05	-0.007909652412153762
1.06910e-05	-0.00791517302628393
1.06913e-05	-0.007920693640414058
1.06915e-05	-0.007920179389310973
1.06918e-05	-0.007913593076063286
1.06920e-05	-0.007907006762815643
1.06923e-05	-0.007900420449567958
1.06925e-05	-0.00789383413632027
1.06928e-05	-0.007887247823072627
1.06930e-05	-0.00788066150982494
1.06933e-05	-0.007869124891371369
1.06935e-05	-0.007852607455669488
1.06938e-05	-0.007836090019967493
1.06940e-05	-0.0078195725842655
1.06943e-05	-0.007803055148563618
1.06945e-05	-0.007786537712861624
1.06948e-05	-0.00777002027715963
1.06950e-05	-0.007747692018550348
1.06953e-05	-0.00772535481971978
1.06955e-05	-0.007703017620889212
1.06958e-05	-0.0076806804220587955
1.06960e-05	-0.007658343223228228
1.06963e-05	-0.00763600602439766
1.06965e-05	-0.007612965694750311
1.06968e-05	-0.007589217900420191
