Time(s)	Current(A)
8.00000e-06	-0.00017602581485499236
8.00025e-06	-8.866806735653861e-05
8.00050e-06	-6.7063433770430875e-06
8.00075e-06	6.916437542125336e-05
8.00100e-06	0.00013834707580985246
8.00125e-06	0.0002005016907685744
8.00150e-06	0.0002555101332710082
8.00175e-06	0.00030328044887144876
8.00200e-06	0.0003436735181134493
8.00225e-06	0.0003765351949194968
8.00250e-06	0.0004017114051849847
8.00275e-06	0.00041905112409200976
8.00300e-06	0.00042846467900306377
8.00325e-06	0.0004300233744876532
8.00350e-06	0.0004239376105918427
8.00375e-06	0.0004104340769446869
8.00400e-06	0.0003897099407404706
8.00425e-06	0.0003619529629802722
8.00450e-06	0.0003273509400650966
8.00475e-06	0.0002860935778846216
8.00500e-06	0.00023840900138407024
8.00525e-06	0.0001846261585936581
8.00550e-06	0.00012516109951361072
8.00575e-06	6.0440074696056216e-05
8.00600e-06	-9.129202615143583e-06
8.00625e-06	-8.314492877090421e-05
8.00650e-06	-0.00016120530012366058
8.00675e-06	-0.00024290734727058154
8.00700e-06	-0.0003278240722325226
8.00725e-06	-0.00041597003079933437
8.00750e-06	-0.0005057393260996914
8.00775e-06	-0.0005969566486467553
8.00800e-06	-0.0006894734183018041
8.00825e-06	-0.0007823069355287611
8.00850e-06	-0.0008754246992827415
8.00875e-06	-0.0009677215116174043
8.00900e-06	-0.00105928160926151
8.00925e-06	-0.0011487801787256478
8.00950e-06	-0.001236428750659605
8.00975e-06	-0.0013206958390241561
8.01000e-06	-0.0014019284133268593
8.01025e-06	-0.0014784730008540288
8.01050e-06	-0.0015508106296619013
8.01075e-06	-0.0016174219532135907
8.01100e-06	-0.0016788945400349389
8.01125e-06	-0.001735899712967195
8.01150e-06	-0.001788895867376097
8.01175e-06	-0.0018372564428001217
8.01200e-06	-0.001881457089801587
8.01225e-06	-0.001925657736803052
8.01250e-06	-0.001963170147617119
8.01275e-06	-0.0019946805932168736
8.01300e-06	-0.0020261910388166284
8.01325e-06	-0.002052017187199838
8.01350e-06	-0.002072742296503829
8.01375e-06	-0.00209346740580782
8.01400e-06	-0.002109469985211973
8.01425e-06	-0.0021212346071949714
8.01450e-06	-0.0021329992291779696
8.01475e-06	-0.0021398354941384308
8.01500e-06	-0.002142249094200767
8.01525e-06	-0.002144662694263103
8.01550e-06	-0.0021435985031323644
8.01575e-06	-0.002139413372312667
8.01600e-06	-0.00213522824149297
8.01625e-06	-0.0021280242992386144
8.01650e-06	-0.0021181113017544073
8.01675e-06	-0.0021081983042702
8.01700e-06	-0.0020958238074632396
8.01725e-06	-0.0020812403824878637
8.01750e-06	-0.002066656957512389
8.01775e-06	-0.0020508603305376466
8.01800e-06	-0.002033974986598695
8.01825e-06	-0.002017089642659629
8.01850e-06	-0.0019994698329384134
8.01875e-06	-0.0019811909199869884
8.01900e-06	-0.0019629120070354393
8.01925e-06	-0.0019447224685400042
8.01950e-06	-0.0019266131339073726
8.01975e-06	-0.0019094018387180737
8.02000e-06	-0.0018929964363457931
8.02025e-06	-0.0018765910339736235
8.02050e-06	-0.0018631065839958595
8.02075e-06	-0.0018522433713933698
8.02100e-06	-0.0018413801587909538
8.02125e-06	-0.0018305169461884643
8.02150e-06	-0.0018196537335859746
8.02175e-06	-0.0018087905209835586
8.02200e-06	-0.0017979273083810689
8.02225e-06	-0.0017918870733341227
8.02250e-06	-0.001790174936565262
8.02275e-06	-0.0017884627997963897
8.02300e-06	-0.0017867506630275174
8.02325e-06	-0.0017850385262586567
8.02350e-06	-0.0017833263894897844
8.02375e-06	-0.001781614252720912
8.02400e-06	-0.0017850999624625578
8.02425e-06	-0.0017932501746351784
8.02450e-06	-0.0018014003868077992
8.02475e-06	-0.0018095505989803647
8.02500e-06	-0.0018177008111529855
8.02525e-06	-0.001825851023325606
8.02550e-06	-0.0018340012354982269
8.02575e-06	-0.0018421514476707924
8.02600e-06	-0.001850301659843413
8.02625e-06	-0.0018586268599273326
8.02650e-06	-0.0018732486611114296
8.02675e-06	-0.0018878704622956259
8.02700e-06	-0.0019024922634798221
8.02725e-06	-0.0019171140646639193
8.02750e-06	-0.0019317358658481154
8.02775e-06	-0.0019463576670323117
8.02800e-06	-0.001960979468216409
8.02825e-06	-0.001975601269400605
8.02850e-06	-0.001990223070584801
8.02875e-06	-0.002004991583980518
8.02900e-06	-0.00201989175564413
8.02925e-06	-0.002034791927307742
8.02950e-06	-0.002049692098971253
8.02975e-06	-0.0020634430521565893
8.03000e-06	-0.002076162706634722
8.03025e-06	-0.0020888823611127684
8.03050e-06	-0.002101602015590901
8.03075e-06	-0.0021127412147271475
8.03100e-06	-0.0021224621269303073
8.03125e-06	-0.0021293998940283524
8.03150e-06	-0.0021338400908181687
8.03175e-06	-0.002133768513720489
8.03200e-06	-0.002129648109819737
8.03225e-06	-0.0021255277059189855
8.03250e-06	-0.0021163502212376574
8.03275e-06	-0.00210263455607105
8.03300e-06	-0.0020889188909044417
8.03325e-06	-0.0020693970356717513
8.03350e-06	-0.0020446647557700484
8.03375e-06	-0.002019932475868345
8.03400e-06	-0.0019894255426078427
8.03425e-06	-0.001953736485446674
8.03450e-06	-0.0019180474282852634
8.03475e-06	-0.0018783427584046462
8.03500e-06	-0.0018350345124554927
8.03525e-06	-0.0017885713379798497
8.03550e-06	-0.0017392769579744006
8.03575e-06	-0.0016877385939852456
8.03600e-06	-0.0016329146608382312
8.03625e-06	-0.001575853460594196
8.03650e-06	-0.0015168890014030695
8.03675e-06	-0.0014563512167706874
8.03700e-06	-0.0013945042169974102
8.03725e-06	-0.0013314897471825666
8.03750e-06	-0.0012674453580559068
8.03775e-06	-0.0012026438787932892
8.03800e-06	-0.0011374546736565218
8.03825e-06	-0.0010722651177758988
8.03850e-06	-0.0010074625799874391
8.03875e-06	-0.0009434319198488181
8.03900e-06	-0.0008805167110928124
8.03925e-06	-0.0008189837326086435
8.03950e-06	-0.0007590972645162334
8.03975e-06	-0.0007012062307431624
8.04000e-06	-0.0006465169907034433
8.04025e-06	-0.0005937744470734988
8.04050e-06	-0.0005436445723973034
8.04075e-06	-0.0004978617117392716
8.04100e-06	-0.0004555221019540297
8.04125e-06	-0.0004153011302798411
8.04150e-06	-0.00037564851326363013
8.04175e-06	-0.0003359965958597734
8.04200e-06	-0.00029672026736942965
8.04225e-06	-0.00025777528223397124
8.04250e-06	-0.00021955804190115053
8.04275e-06	-0.0001826961403966394
8.04300e-06	-0.00014694921091896248
8.04325e-06	-0.00011163730423314264
8.04350e-06	-7.58553284287188e-05
8.04375e-06	-3.9265613821957724e-05
8.04400e-06	-2.0964713487170303e-06
8.04425e-06	3.5362248437910765e-05
8.04450e-06	7.282075663449918e-05
8.04475e-06	0.00010997521206653468
8.04500e-06	0.00014691506939987247
8.04525e-06	0.00018385492673346057
8.04550e-06	0.0002215194585398247
8.04575e-06	0.0002598343069405279
8.04600e-06	0.00029814915534149075
8.04625e-06	0.00033666782403021393
8.04650e-06	0.00037536939927938523
8.04675e-06	0.0004136827248357226
8.04700e-06	0.0004516476384805505
8.04725e-06	0.000489445611582887
8.04750e-06	0.0005271152634394486
8.04775e-06	0.0005647405130425805
8.04800e-06	0.0006021191755223628
8.04825e-06	0.0006390126269994885
8.04850e-06	0.0006751823694526124
8.04875e-06	0.0007103953190797768
8.04900e-06	0.000744506816077645
8.04925e-06	0.0007775470969498635
8.04950e-06	0.0008095810399240327
8.04975e-06	0.0008405222411984066
8.05000e-06	0.0008701673587921515
8.05025e-06	0.0008982902866201641
8.05050e-06	0.0009246649461278395
8.05075e-06	0.0009490756585107751
8.05100e-06	0.0009714805716040716
8.05125e-06	0.000992191633757413
8.05150e-06	0.0010113134844788082
8.05175e-06	0.001029628350362248
8.05200e-06	0.0010466010961956468
8.05225e-06	0.0010623694351217833
8.05250e-06	0.0010765502321506617
8.05275e-06	0.0010893063828321006
8.05300e-06	0.0011002467288465435
8.05325e-06	0.0011095575874811544
8.05350e-06	0.0011188684461157022
8.05375e-06	0.0011258684665542496
8.05400e-06	0.0011307947608119567
8.05425e-06	0.0011357210550696304
8.05450e-06	0.0011406473493273377
8.05475e-06	0.0011455736435850448
8.05500e-06	0.001150366867134287
8.05525e-06	0.001150371798910648
8.05550e-06	0.001150376730687009
8.05575e-06	0.00115038166246337
8.05600e-06	0.001150386594239731
8.05625e-06	0.0011503915260160922
8.05650e-06	0.0011485918997674966
8.05675e-06	0.0011451728787782078
8.05700e-06	0.0011417538577889188
8.05725e-06	0.0011383348367996532
8.05750e-06	0.0011349158158103642
8.05775e-06	0.0011314967948210753
8.05800e-06	0.0011272329295742092
8.05825e-06	0.001122210908408465
8.05850e-06	0.0011171888872427208
8.05875e-06	0.0011121668660770106
8.05900e-06	0.0011071448449112664
8.05925e-06	0.0011021228237455224
8.05950e-06	0.0010971573007342507
8.05975e-06	0.0010922424786773612
8.06000e-06	0.0010873276566204717
8.06025e-06	0.0010828078001232063
8.06050e-06	0.0010786423822980523
8.06075e-06	0.00107447696447287
8.06100e-06	0.0010704730137714032
8.06125e-06	0.0010666139622681882
8.06150e-06	0.0010627549107649471
8.06175e-06	0.0010584694388019946
8.06200e-06	0.001053801300812088
8.06225e-06	0.0010491331628221497
8.06250e-06	0.0010438137629001027
8.06275e-06	0.0010379099261612922
8.06300e-06	0.001032006089422442
8.06325e-06	0.0010261022526835916
8.06350e-06	0.0010201984159447812
8.06375e-06	0.0010142945792059308
8.06400e-06	0.0010083907424670803
8.06425e-06	0.0010013180009123606
8.06450e-06	0.0009931962943004846
8.06475e-06	0.0009850745876886086
8.06500e-06	0.0009769528810767876
8.06525e-06	0.0009688311744649117
8.06550e-06	0.0009607094678530357
8.06575e-06	0.0009525877612412148
8.06600e-06	0.0009436453064147107
8.06625e-06	0.0009339663192494186
8.06650e-06	0.000924287332084192
8.06675e-06	0.0009146083449189
8.06700e-06	0.0009049293577536078
8.06725e-06	0.0008952503705883814
8.06750e-06	0.0008855713834230892
8.06775e-06	0.0008758979483490408
8.06800e-06	0.0008664242945284513
8.06825e-06	0.0008569506407077975
8.06850e-06	0.0008474769868871437
8.06875e-06	0.00083800333306649
8.06900e-06	0.0008285296792459005
8.06925e-06	0.0008190560254252466
8.06950e-06	0.0008095823716045929
8.06975e-06	0.0008008513888360614
8.07000e-06	0.0007927868726369296
8.07025e-06	0.0007847223564377979
8.07050e-06	0.0007772893822331396
8.07075e-06	0.000770423148344126
8.07100e-06	0.0007636783675917843
8.07125e-06	0.0007570425778323722
8.07150e-06	0.0007494861186905936
8.07175e-06	0.0007411034588194625
8.07200e-06	0.0007315957136191217
8.07225e-06	0.0007210783265890964
8.07250e-06	0.000710560939559071
8.07275e-06	0.0006989106137007525
8.07300e-06	0.0006862435983506391
8.07325e-06	0.0006735765830005258
8.07350e-06	0.0006590340436677846
8.07375e-06	0.0006428084253575119
8.07400e-06	0.0006265828070472392
8.07425e-06	0.0006087595743186806
8.07450e-06	0.0005895026562484636
8.07475e-06	0.0005702457381782467
8.07500e-06	0.0005496553511788078
8.07525e-06	0.0005278683207116653
8.07550e-06	0.0005060812902445226
8.07575e-06	0.00048291356248146106
8.07600e-06	0.00045850680892341644
8.07625e-06	0.0004341000553653718
8.07650e-06	0.0004088632608335461
8.07675e-06	0.0003828815947207618
8.07700e-06	0.0003568999286079775
8.07725e-06	0.0003309182624951932
8.07750e-06	0.0003045593178131839
8.07775e-06	0.00027786180661052817
8.07800e-06	0.00025116429540787244
8.07825e-06	0.0002244667842053976
8.07850e-06	0.00019813157700473971
8.07875e-06	0.00017212149827747203
8.07900e-06	0.00014656483641316292
8.07925e-06	0.00012175629531505743
8.07950e-06	9.763794744730918e-05
8.07975e-06	7.432838186857354e-05
8.08000e-06	5.1988974273096563e-05
8.08025e-06	3.0789308649656824e-05
8.08050e-06	1.0898941013579606e-05
8.08075e-06	-7.513468007100851e-06
8.08100e-06	-2.4298501605284222e-05
8.08125e-06	-3.936044222881961e-05
8.08150e-06	-5.265655718416954e-05
8.08175e-06	-6.415914944488695e-05
8.08200e-06	-7.38354729101497e-05
8.08225e-06	-8.165036538451136e-05
8.08250e-06	-8.756868822083266e-05
8.08275e-06	-9.155587296428758e-05
8.08300e-06	-9.358941141650223e-05
8.08325e-06	-9.368042866959866e-05
8.08350e-06	-9.187324916357362e-05
8.08375e-06	-8.822160472501145e-05
8.08400e-06	-8.27760682344924e-05
8.08425e-06	-7.558570491550886e-05
8.08450e-06	-6.669958421961868e-05
8.08475e-06	-5.616713144014099e-05
8.08500e-06	-4.404532880262326e-05
8.08525e-06	-3.041222328983171e-05
8.08550e-06	-1.5366648127046737e-05
8.08575e-06	9.86669402842658e-07
8.08600e-06	1.854498911602796e-05
8.08625e-06	3.7206525773508806e-05
8.08650e-06	5.6869491358263234e-05
8.08675e-06	7.743188532159027e-05
8.08700e-06	9.878698209024112e-05
8.08725e-06	0.00012094001231188063
8.08750e-06	0.00014349489520110848
8.08775e-06	0.0001664073481350998
8.08800e-06	0.00018964068133019385
8.08825e-06	0.00021294717324389962
8.08850e-06	0.00023631931715835703
8.08875e-06	0.0002594788759018107
8.08900e-06	0.000282447662553855
8.08925e-06	0.000304896461667268
8.08950e-06	0.0003268786284669846
8.08975e-06	0.0003482655936010343
8.09000e-06	0.00036861230871121034
8.09025e-06	0.00038791689632332164
8.09050e-06	0.0004060240552501317
8.09075e-06	0.0004227515862303708
8.09100e-06	0.00043748926763090826
8.09125e-06	0.00044882715687040567
8.09150e-06	0.0004553241253050926
8.09175e-06	0.00045641613402143096
8.09200e-06	0.0004521669325434743
8.09225e-06	0.0004427583785166301
8.09250e-06	0.0004283723402035273
8.09275e-06	0.0004091738162627518
8.09300e-06	0.0003850597075130978
8.09325e-06	0.00035542602910199663
8.09350e-06	0.0003196493000961297
8.09375e-06	0.00027765551483644
8.09400e-06	0.00022976393444556955
8.09425e-06	0.00017636775934242154
8.09450e-06	0.00011786016998577937
8.09475e-06	5.462375810095274e-05
8.09500e-06	-1.3126827189475353e-05
8.09525e-06	-8.549068884949414e-05
8.09550e-06	-0.00016257910126027657
8.09575e-06	-0.00024415916850812665
8.09600e-06	-0.0003297516682649148
8.09625e-06	-0.00041883109144535263
8.09650e-06	-0.0005114517407307224
8.09675e-06	-0.0006058757862583677
8.09700e-06	-0.0007027423083571126
8.09725e-06	-0.0008018006877762606
8.09750e-06	-0.0009008590671947374
8.09775e-06	-0.0010013071478236157
8.09800e-06	-0.0011030023342821437
8.09825e-06	-0.001204384147718852
8.09850e-06	-0.001305484742921149
8.09875e-06	-0.001405029486323186
8.09900e-06	-0.0015031780217939306
8.09925e-06	-0.0015988301262357572
8.09950e-06	-0.0016922419550926724
8.09975e-06	-0.00178203525355635
8.10000e-06	-0.001868581314185539
8.10025e-06	-0.0019501283772094466
8.10050e-06	-0.002027189383076942
8.10075e-06	-0.002097851198346117
8.10100e-06	-0.0021627704353935507
8.10125e-06	-0.0022200276023716724
8.10150e-06	-0.0022704088940293586
8.10175e-06	-0.002312601869822362
8.10200e-06	-0.0023474467218747553
8.10225e-06	-0.002373895815246517
8.10250e-06	-0.0023928106274910556
8.10275e-06	-0.0024031246311012402
8.10300e-06	-0.0024057203435320063
8.10325e-06	-0.0023995959723107072
8.10350e-06	-0.002385646273542104
8.10375e-06	-0.002363318915953787
8.10400e-06	-0.0023334735198969146
8.10425e-06	-0.0022976830250139983
8.10450e-06	-0.002252776358245227
8.10475e-06	-0.0022008315672675306
8.10500e-06	-0.0021421023209608264
8.10525e-06	-0.002076858461077966
8.10550e-06	-0.0020054445688600397
8.10575e-06	-0.001928295074169553
8.10600e-06	-0.0018458854314798026
8.10625e-06	-0.0017586967428461246
8.10650e-06	-0.00166721026291389
8.10675e-06	-0.0015719065840097107
8.10700e-06	-0.0014732631032791889
8.10725e-06	-0.0013717673731056784
8.10750e-06	-0.0012679536966008335
8.10775e-06	-0.001162412498236158
8.10800e-06	-0.0010557601170057762
8.10825e-06	-0.0009486163048148862
8.10850e-06	-0.000841600688508058
8.10875e-06	-0.0007353326369189918
8.10900e-06	-0.0006304294398915467
8.10925e-06	-0.0005275146408828171
8.10950e-06	-0.0004272410295002286
8.10975e-06	-0.00033029660295655404
8.11000e-06	-0.00023738543212692957
8.11025e-06	-0.0001492136907803269
8.11050e-06	-6.648750214736173e-05
8.11075e-06	1.0096587303641476e-05
8.11100e-06	8.001726708691044e-05
8.11125e-06	0.0001431579842229095
8.11150e-06	0.0001996398717111755
8.11175e-06	0.00024946244502344614
8.11200e-06	0.0002924692315904433
8.11225e-06	0.00032846801142901274
8.11250e-06	0.00035726664950735373
8.11275e-06	0.0003786790289368056
8.11300e-06	0.00039262882658713555
8.11325e-06	0.00039929324842328314
8.11350e-06	0.0003989983919813663
8.11375e-06	0.00039199415854362365
8.11400e-06	0.0003784327176880461
8.11425e-06	0.0003584438894112518
8.11450e-06	0.00033215748898835634
8.11475e-06	0.00029970709443775066
8.11500e-06	0.0002612951177506074
8.11525e-06	0.0002172827492522748
8.11550e-06	0.00016812437945760918
8.11575e-06	0.00011422666850803238
8.11600e-06	5.593504472945045e-05
8.11625e-06	-6.4191135512511866e-06
8.11650e-06	-7.250442092679649e-05
8.11675e-06	-0.00014198713019800444
8.11700e-06	-0.00021449046634529424
8.11725e-06	-0.00028953819788628894
8.11750e-06	-0.00036693301993061836
8.11775e-06	-0.00044546107713238384
8.11800e-06	-0.000524856140695187
8.11825e-06	-0.0006050292482572304
8.11850e-06	-0.0006851043251307528
8.11875e-06	-0.0007650914301128905
8.11900e-06	-0.0008439402992452287
8.11925e-06	-0.000921767725384494
8.11950e-06	-0.0009972542872681036
8.11975e-06	-0.0010706401778413667
8.12000e-06	-0.0011405326111312071
8.12025e-06	-0.0012072900461102883
8.12050e-06	-0.0012694235187453856
8.12075e-06	-0.0013274074876175697
8.12100e-06	-0.0013796666544509495
8.12125e-06	-0.0014267884335128034
8.12150e-06	-0.001467501941368715
8.12175e-06	-0.0015024647221423546
8.12200e-06	-0.0015307933515778679
8.12225e-06	-0.0015531685510559118
8.12250e-06	-0.0015687347668075751
8.12275e-06	-0.001578190659530661
8.12300e-06	-0.0015806814188769197
8.12325e-06	-0.0015769217278508451
8.12350e-06	-0.0015663021894203348
8.12375e-06	-0.0015495266833374694
8.12400e-06	-0.0015262832992176947
8.12425e-06	-0.0014972356973614034
8.12450e-06	-0.0014621441530317362
8.12475e-06	-0.001421628827068239
8.12500e-06	-0.0013768457992497031
8.12525e-06	-0.001325551555000078
8.12550e-06	-0.0012693401801240672
8.12575e-06	-0.001208560710377856
8.12600e-06	-0.0011435887803384428
8.12625e-06	-0.0010748033155818912
8.12650e-06	-0.0010025832849545062
8.12675e-06	-0.0009273073961418352
8.12700e-06	-0.0008493546431711425
8.12725e-06	-0.0007691181577567976
8.12750e-06	-0.000687029592013136
8.12775e-06	-0.0006035603520714243
8.12800e-06	-0.0005191985674299433
8.12825e-06	-0.0004344343127680528
8.12850e-06	-0.0003497576261924913
8.12875e-06	-0.00026565835702018723
8.12900e-06	-0.00018262657758355186
8.12925e-06	-0.00010116113215866997
8.12950e-06	-2.178494931983908e-05
8.12975e-06	5.495414944351796e-05
8.13000e-06	0.00012849794147040954
8.13025e-06	0.0001982870114678158
8.13050e-06	0.00026376198238833333
8.13075e-06	0.00032437433429873203
8.13100e-06	0.0003797665035642902
8.13125e-06	0.00043000100024578246
8.13150e-06	0.0004753379268502369
8.13175e-06	0.0005158399392066805
8.13200e-06	0.000551372160401818
8.13225e-06	0.0005817572592225871
8.13250e-06	0.0006068179382820612
8.13275e-06	0.0006263837350310598
8.13300e-06	0.0006404038399948672
8.13325e-06	0.0006490906016534125
8.13350e-06	0.0006527800822307082
8.13375e-06	0.0006516846263168545
8.13400e-06	0.0006458928496608482
8.13425e-06	0.0006354668323069491
8.13450e-06	0.0006204686511517302
8.13475e-06	0.0006009645890883972
8.13500e-06	0.0005770959618319731
8.13525e-06	0.0005491689086518715
8.13550e-06	0.0005175670460434801
8.13575e-06	0.0004825964590198
8.13600e-06	0.0004444856515445606
8.13625e-06	0.0004034465455195665
8.13650e-06	0.0003596910734645505
8.13675e-06	0.0003134337939927898
8.13700e-06	0.00026493620646095577
8.13725e-06	0.00021456303959031112
8.13750e-06	0.00016272752274424336
8.13775e-06	0.00010979431405487114
8.13800e-06	5.60794877295048e-05
8.13825e-06	1.8886531118598207e-06
8.13850e-06	-5.2472592105204475e-05
8.13875e-06	-0.00010669700553009243
8.13900e-06	-0.00016044795518373986
8.13925e-06	-0.00021332419216471953
8.13950e-06	-0.0002648941049206843
8.13975e-06	-0.0003147565349215631
8.14000e-06	-0.00036254081202084825
8.14025e-06	-0.0004078828181963465
8.14050e-06	-0.0004504184507637471
8.14075e-06	-0.0004897972263774272
8.14100e-06	-0.000525898161584372
8.14125e-06	-0.000559074127998884
8.14150e-06	-0.000589825489239723
8.14175e-06	-0.0006176758970888118
8.14200e-06	-0.0006438701594071249
8.14225e-06	-0.0006673120770659392
8.14250e-06	-0.0006882840644624179
8.14275e-06	-0.000706239004398655
8.14300e-06	-0.0007214864720710041
8.14325e-06	-0.0007341946519251471
8.14350e-06	-0.000744624096880809
8.14375e-06	-0.0007528958543125731
8.14400e-06	-0.0007592313216455687
8.14425e-06	-0.0007633402913043219
