Time(s)	Current(A)
6.25000e-06	-0.0005241020225430254
6.25025e-06	-0.0005757792829953122
6.25050e-06	-0.0006266848219511881
6.25075e-06	-0.0006752175793091425
6.25100e-06	-0.0007229308646213607
6.25125e-06	-0.0007673076319981439
6.25150e-06	-0.0008105320880197061
6.25175e-06	-0.0008494070321335794
6.25200e-06	-0.0008867798137958498
6.25225e-06	-0.0009199581683045758
6.25250e-06	-0.0009516879209682063
6.25275e-06	-0.0009805535487469861
6.25300e-06	-0.0010084300124656984
6.25325e-06	-0.001032305063101604
6.25350e-06	-0.0010547981718981808
6.25375e-06	-0.0010772912806947576
6.25400e-06	-0.0010944624016392419
6.25425e-06	-0.0011097955024821748
6.25450e-06	-0.0011251286033251077
6.25475e-06	-0.001136592250493886
6.25500e-06	-0.001146719529780469
6.25525e-06	-0.0011568468090670868
6.25550e-06	-0.0011631122205427238
6.25575e-06	-0.001168043884016171
6.25600e-06	-0.0011729755474896347
6.25625e-06	-0.0011725349891204037
6.25650e-06	-0.0011702390616653753
6.25675e-06	-0.001167943134210339
6.25700e-06	-0.0011656472067553107
6.25725e-06	-0.0011633512793002823
6.25750e-06	-0.0011610553518452461
6.25775e-06	-0.0011587594243902177
6.25800e-06	-0.0011549929389812028
6.25825e-06	-0.0011466526348846366
6.25850e-06	-0.0011383123307880988
6.25875e-06	-0.0011299720266915608
6.25900e-06	-0.0011216317225949946
6.25925e-06	-0.0011132914184984566
6.25950e-06	-0.0011049511144018904
6.25975e-06	-0.0010966108103053526
6.26000e-06	-0.0010873714227706303
6.26025e-06	-0.001077821524675169
6.26050e-06	-0.0010682716265797401
6.26075e-06	-0.0010587217284843112
6.26100e-06	-0.00104917183038885
6.26125e-06	-0.0010408459618096323
6.26150e-06	-0.0010329428282906384
6.26175e-06	-0.0010250396947716178
6.26200e-06	-0.0010171365612526239
6.26225e-06	-0.0010092334277336302
6.26250e-06	-0.0009986759977691905
6.26275e-06	-0.0009872018708192841
6.26300e-06	-0.0009713120791953564
6.26325e-06	-0.0009538972783725626
6.26350e-06	-0.0009326941825172319
6.26375e-06	-0.0009101827480086681
6.26400e-06	-0.0008842066435093269
6.26425e-06	-0.0008570339686187193
6.26450e-06	-0.0008248189516585653
6.26475e-06	-0.0007908624940306281
6.26500e-06	-0.0007515414754163226
6.26525e-06	-0.0007103677334962633
6.26550e-06	-0.0006657559730594858
6.26575e-06	-0.0006179887045442456
6.26600e-06	-0.0005677744506928238
6.26625e-06	-0.0005151126283969113
6.26650e-06	-0.0004596975265281726
6.26675e-06	-0.0004014079175396472
6.26700e-06	-0.0003404886184094154
6.26725e-06	-0.0002773165517708293
6.26750e-06	-0.00021228120337032455
6.26775e-06	-0.00014577199032135763
6.26800e-06	-7.815204523746992e-05
6.26825e-06	-9.60575840283542e-06
6.26850e-06	5.987371354726097e-05
6.26875e-06	0.0001303568986328919
6.26900e-06	0.0002011028001479784
6.26925e-06	0.0002718487016630649
6.26950e-06	0.0003419809666895947
6.26975e-06	0.0004119013040993071
6.27000e-06	0.00047993034950771833
6.27025e-06	0.0005473062117804029
6.27050e-06	0.0006120702295980807
6.27075e-06	0.0006759322117965128
6.27100e-06	0.0007361533041117506
6.27125e-06	0.0007951169661251621
6.27150e-06	0.0008491001771948827
6.27175e-06	0.0009013633225300784
6.27200e-06	0.0009474077184827919
6.27225e-06	0.000991304385676562
6.27250e-06	0.0010285765607549906
6.27275e-06	0.0010635608783631683
6.27300e-06	0.001091787057097678
6.27325e-06	0.0011176792216558503
6.27350e-06	0.0011364885839293395
6.27375e-06	0.001152851805150067
6.27400e-06	0.001161868997514608
6.27425e-06	0.0011683491399887825
6.27450e-06	0.0011677417209864402
6.27475e-06	0.001164686517280414
6.27500e-06	0.0011549723822166906
6.27525e-06	0.0011429584956270929
6.27550e-06	0.0011245949386154586
6.27575e-06	0.0011040384375025803
6.27600e-06	0.0010774797734990251
6.27625e-06	0.0010488481817952824
6.27650e-06	0.0010148888046775891
6.27675e-06	0.0009790894051936402
6.27700e-06	0.0009387430522399063
6.27725e-06	0.000896826347735945
6.27750e-06	0.0008510686077010642
6.27775e-06	0.0008039843143728386
6.27800e-06	0.000753201407933169
6.27825e-06	0.0007011411356989875
6.27850e-06	0.000649080863464806
6.27875e-06	0.0005943438991819255
6.27900e-06	0.0005386825032912873
6.27925e-06	0.00048302110740064907
6.27950e-06	0.0004273597115098222
6.27975e-06	0.000371698315619184
6.28000e-06	0.00031603691972854577
6.28025e-06	0.0002611286659386574
6.28050e-06	0.00020740272147834208
6.28075e-06	0.00015520809768348218
6.28100e-06	0.0001049241515775082
6.28125e-06	5.692419805321324e-05
6.28150e-06	1.1580818298662427e-05
6.28175e-06	-3.073344456661003e-05
6.28200e-06	-6.973680941283946e-05
6.28225e-06	-0.00010578374851469448
6.28250e-06	-0.0001399617896438447
6.28275e-06	-0.00017305913392004572
6.28300e-06	-0.0002051306666727169
6.28325e-06	-0.00023595837042165752
6.28350e-06	-0.0002652976782085104
6.28375e-06	-0.0002929040089133497
6.28400e-06	-0.0003179868946463767
6.28425e-06	-0.00034235748184444043
6.28450e-06	-0.0003653309433942069
6.28475e-06	-0.00038782188880605295
6.28500e-06	-0.00040945665561473247
6.28525e-06	-0.0004307957296247619
6.28550e-06	-0.0004503935163109325
6.28575e-06	-0.0004693899259947956
6.28600e-06	-0.0004883863356785943
6.28625e-06	-0.0005055174522487775
6.28650e-06	-0.0005220043647489466
6.28675e-06	-0.0005384912772490599
6.28700e-06	-0.0005527809665384001
6.28725e-06	-0.0005663118152333108
6.28750e-06	-0.0005798426639281756
6.28775e-06	-0.0005933735126230404
6.28800e-06	-0.0006069043613179509
6.28825e-06	-0.0006204352100128158
6.28850e-06	-0.0006339660587076806
6.28875e-06	-0.0006474969074025912
6.28900e-06	-0.000661027756097456
6.28925e-06	-0.0006735122138651825
6.28950e-06	-0.0006827421230036441
6.28975e-06	-0.0006919720321421057
6.29000e-06	-0.0007012019412805985
6.29025e-06	-0.00071043185041906
6.29050e-06	-0.0007196617595575216
6.29075e-06	-0.0007288916686960144
6.29100e-06	-0.000738121577834476
6.29125e-06	-0.0007473514869729375
6.29150e-06	-0.0007565813961114303
6.29175e-06	-0.0007638484141680831
6.29200e-06	-0.0007704375213834876
6.29225e-06	-0.0007744979618366675
6.29250e-06	-0.0007776850932061539
6.29275e-06	-0.000775744498278013
6.29300e-06	-0.0007720329740913446
6.29325e-06	-0.0007632327922451079
6.29350e-06	-0.0007526751740200788
6.29375e-06	-0.0007385850456878499
6.29400e-06	-0.0007210206181129338
6.29425e-06	-0.0007001631405788539
6.29450e-06	-0.0006754214342507011
6.29475e-06	-0.0006464499936449623
6.29500e-06	-0.0006133590620648727
6.29525e-06	-0.0005764214366518761
6.29550e-06	-0.000535925375123532
6.29575e-06	-0.000492159050228054
6.29600e-06	-0.0004453788763637722
6.29625e-06	-0.00039562796305471753
6.29650e-06	-0.00034272843043730574
6.29675e-06	-0.000286656372267464
6.29700e-06	-0.00022767329998185938
6.29725e-06	-0.00016614261415592182
6.29750e-06	-0.00010243728823887483
6.29775e-06	-3.693026785773143e-05
6.29800e-06	3.002542152758857e-05
6.29825e-06	9.82104136588109e-05
6.29850e-06	0.00016788340688400047
6.29875e-06	0.0002379653142084934
6.29900e-06	0.00030872108703619994
6.29925e-06	0.0003797095883809375
6.29950e-06	0.00045069808972543447
6.29975e-06	0.0005200288059291677
6.30000e-06	0.00058878698373323
6.30025e-06	0.0006575451615370593
6.30050e-06	0.0007232574565942082
6.30075e-06	0.0007879178150699484
6.30100e-06	0.0008488926121565897
6.30125e-06	0.0009085945510371972
6.30150e-06	0.0009632519413129812
6.30175e-06	0.0010161671288655525
6.30200e-06	0.001063005131357742
6.30225e-06	0.0011077442962355766
6.30250e-06	0.0011474081291903942
6.30275e-06	0.0011853191279894294
6.30300e-06	0.0012185965343944841
6.30325e-06	0.0012502736673325413
6.30350e-06	0.0012767513832381682
6.30375e-06	0.0013014334105259494
6.30400e-06	0.0013205329058419532
6.30425e-06	0.0013377043986421279
6.30450e-06	0.0013491500356885414
6.30475e-06	0.0013586181714229405
6.30500e-06	0.0013680863071573717
6.30525e-06	0.0013712612626328678
6.30550e-06	0.001372262783646545
6.30575e-06	0.0013732643046602253
6.30600e-06	0.0013680942211325628
6.30625e-06	0.0013607926909526846
6.30650e-06	0.0013534911607727819
6.30675e-06	0.0013415755797288795
6.30700e-06	0.0013280664741482854
6.30725e-06	0.001314557368567737
6.30750e-06	0.0012957469415630122
6.30775e-06	0.001275105631888113
6.30800e-06	0.0012544643222132837
6.30825e-06	0.0012338230125384544
6.30850e-06	0.0012131817028635554
6.30875e-06	0.0011925403931887261
6.30900e-06	0.0011688147522660882
6.30925e-06	0.0011440238960548684
6.30950e-06	0.0011192330398437326
6.30975e-06	0.001094442183632597
6.31000e-06	0.0010696513274213771
6.31025e-06	0.0010448604712102413
6.31050e-06	0.0010215293456524628
6.31075e-06	0.0009987023577128005
6.31100e-06	0.0009758753697732157
6.31125e-06	0.0009530483818335535
6.31150e-06	0.0009313480962109147
6.31175e-06	0.0009131521485787281
6.31200e-06	0.0008949562009464796
6.31225e-06	0.0008767602533142929
6.31250e-06	0.0008585643056821062
6.31275e-06	0.0008386551066918777
6.31300e-06	0.0008181542132977254
6.31325e-06	0.0007976533199035731
6.31350e-06	0.000775026913767826
6.31375e-06	0.0007516664332134241
6.31400e-06	0.0007283059526590223
6.31425e-06	0.0007030984297700187
6.31450e-06	0.00067725300596356
6.31475e-06	0.0006484730644980789
6.31500e-06	0.0006186796478824024
6.31525e-06	0.0005863974551845052
6.31550e-06	0.0005532557301862615
6.31575e-06	0.0005183455868652664
6.31600e-06	0.0004828246964868731
6.31625e-06	0.0004455640510996906
6.31650e-06	0.0004077025579163907
6.31675e-06	0.0003675944666148989
6.31700e-06	0.0003267104824308678
6.31725e-06	0.00028419178076442137
6.31750e-06	0.00024110850742440476
6.31775e-06	0.00019717434467351628
6.31800e-06	0.00015294631581822975
6.31825e-06	0.00010821781468061024
6.31850e-06	6.331646870755503e-05
6.31875e-06	1.797595842956947e-05
6.31900e-06	-2.7608758715905326e-05
6.31925e-06	-7.311027201556308e-05
6.31950e-06	-0.00011824917679521967
6.31975e-06	-0.00016274613081926738
6.32000e-06	-0.00020633632560956055
6.32025e-06	-0.00024885471700572634
6.32050e-06	-0.0002902458237574881
6.32075e-06	-0.00033039564236823145
6.32100e-06	-0.00036906670143235126
6.32125e-06	-0.00040597661665461437
6.32150e-06	-0.00044083867203938793
6.32175e-06	-0.0004733662231799017
6.32200e-06	-0.000502359258485513
6.32225e-06	-0.0005303450943990818
6.32250e-06	-0.0005550660814777112
6.32275e-06	-0.0005786595090911687
6.32300e-06	-0.0005992316719586021
6.32325e-06	-0.0006187604004027314
6.32350e-06	-0.0006349277333166418
6.32375e-06	-0.0006499341630652514
6.32400e-06	-0.000661346494437652
6.32425e-06	-0.000671517555586519
6.32450e-06	-0.000678616082514196
6.32475e-06	-0.0006846534684156526
6.32500e-06	-0.0006879499708657486
6.32525e-06	-0.0006902998723444862
6.32550e-06	-0.0006898750135793924
6.32575e-06	-0.0006884918540369362
6.32600e-06	-0.0006837839735845375
6.32625e-06	-0.0006779278560404429
6.32650e-06	-0.000672071738496368
6.32675e-06	-0.0006631690459590201
6.32700e-06	-0.0006532141777640288
6.32725e-06	-0.0006432593095690713
6.32750e-06	-0.000630770921677853
6.32775e-06	-0.0006174075486776329
6.32800e-06	-0.0006040441756774581
6.32825e-06	-0.0005884837088065907
6.32850e-06	-0.0005721644460114405
6.32875e-06	-0.0005558451832162901
6.32900e-06	-0.0005395259204210846
6.32925e-06	-0.0005232066576259343
6.32950e-06	-0.0005061849857141176
6.32975e-06	-0.0004889207273647447
6.33000e-06	-0.0004716564690154303
6.33025e-06	-0.00045439221066611603
6.33050e-06	-0.0004371279523167432
6.33075e-06	-0.000420988616920554
6.33100e-06	-0.00040523778879907567
6.33125e-06	-0.00038948696067754395
6.33150e-06	-0.0003752782044385383
6.33175e-06	-0.00036160202346861457
6.33200e-06	-0.00034912983149143305
6.33225e-06	-0.00033707345330941514
6.33250e-06	-0.00032501707512735636
6.33275e-06	-0.00031255472982956597
6.33300e-06	-0.00029882972094750934
6.33325e-06	-0.0002851047120654062
6.33350e-06	-0.0002713797031833495
6.33375e-06	-0.0002568450630658298
6.33400e-06	-0.00024203080590967576
6.33425e-06	-0.00022646615941217078
6.33450e-06	-0.00021064235586114137
6.33475e-06	-0.00019362043118440576
6.33500e-06	-0.00017541309202470805
6.33525e-06	-0.0001562783066264053
6.33550e-06	-0.00013636493773701113
6.33575e-06	-0.00011582180444849572
6.33600e-06	-9.477489215800345e-05
6.33625e-06	-7.3192908852541e-05
6.33650e-06	-5.087098819664603e-05
6.33675e-06	-2.7694681738490153e-05
6.33700e-06	-3.742945407829441e-06
6.33725e-06	2.0834631805091555e-05
6.33750e-06	4.58816905617105e-05
6.33775e-06	7.129241921478724e-05
6.33800e-06	9.679068161762161e-05
6.33825e-06	0.00012262001263930517
6.33850e-06	0.00014856368266201824
6.33875e-06	0.00017450735268473132
6.33900e-06	0.00020041067746460076
6.33925e-06	0.0002261885180190364
6.33950e-06	0.00025196635857347203
6.33975e-06	0.00027774419912799503
6.34000e-06	0.0003022844365797697
6.34025e-06	0.00032639725115147817
6.34050e-06	0.00035051006572326836
6.34075e-06	0.0003732642824669265
6.34100e-06	0.00039554928917453624
6.34125e-06	0.0004162750764872514
6.34150e-06	0.0004364623664069556
6.34175e-06	0.0004546066650861468
6.34200e-06	0.00047204538925751705
6.34225e-06	0.00048711810286170324
6.34250e-06	0.0005013736828884079
6.34275e-06	0.0005132331612761237
6.34300e-06	0.0005242651137299009
6.34325e-06	0.0005328040500937063
6.34350e-06	0.0005404819898141581
6.34375e-06	0.0005455479769151555
6.34400e-06	0.0005497118910424449
6.34425e-06	0.0005512457243560604
6.34450e-06	0.0005518712238802365
6.34475e-06	0.0005500320245055516
6.34500e-06	0.0005473416082104702
6.34525e-06	0.0005423098858800857
6.34550e-06	0.000536469562014672
6.34575e-06	0.0005283976963828648
6.34600e-06	0.0005195551377828263
6.34625e-06	0.0005081997836032352
6.34650e-06	0.000495976601667587
6.34675e-06	0.00048375341973189753
6.34700e-06	0.00046907057210321857
6.34725e-06	0.0004535382458395325
6.34750e-06	0.00043800591957579387
6.34775e-06	0.00042059375581919686
6.34800e-06	0.0004025323648964816
6.34825e-06	0.00038447097397370516
6.34850e-06	0.00036506380214099707
6.34875e-06	0.00034519184676732337
6.34900e-06	0.00032531989139358234
6.34925e-06	0.00030544793601990864
6.34950e-06	0.0002855759806461676
6.34975e-06	0.0002657040252724939
6.35000e-06	0.0002458320698988202
6.35025e-06	0.0002259601145250792
6.35050e-06	0.00020680246922214602
6.35075e-06	0.00018789152051116426
6.35100e-06	0.00016973397890185238
6.35125e-06	0.0001524717723476441
6.35150e-06	0.00013616348891508948
6.35175e-06	0.00012094291517717731
6.35200e-06	0.00010694901165552532
6.35225e-06	9.434779145605215e-05
6.35250e-06	8.331157111550748e-05
6.35275e-06	7.394650508748494e-05
6.35300e-06	6.628807574648024e-05
6.35325e-06	6.0349803672059635e-05
6.35350e-06	5.614336584234442e-05
6.35375e-06	5.368042935292912e-05
6.35400e-06	5.297589165103933e-05
6.35425e-06	5.406159413617023e-05
6.35450e-06	5.697332458452962e-05
6.35475e-06	6.170541687525519e-05
6.35500e-06	6.820793515257721e-05
6.35525e-06	7.641719941962392e-05
6.35550e-06	8.626836373558982e-05
6.35575e-06	9.769658289845576e-05
6.35600e-06	0.00011063903623052147
6.35625e-06	0.00012504353101028785
6.35650e-06	0.00014086032489064358
6.35675e-06	0.00015801372975863748
6.35700e-06	0.00017640032820024972
6.35725e-06	0.00019627211703187466
6.35750e-06	0.00021655000717585939
6.35775e-06	0.0002381170325804799
6.35800e-06	0.0002601292781890482
6.35825e-06	0.00028328534506882506
6.35850e-06	0.0003068364460114417
6.35875e-06	0.00033038754695413814
6.35900e-06	0.00035452509329643374
6.35925e-06	0.000378865176446429
6.35950e-06	0.0004032052595965068
6.35975e-06	0.0004275453427465021
6.36000e-06	0.00045149670867170765
6.36025e-06	0.00047423906267238426
6.36050e-06	0.0004969814166729838
6.36075e-06	0.0005197237706735834
6.36100e-06	0.00054246612467426
6.36125e-06	0.000562554046662908
6.36150e-06	0.0005817252248485994
6.36175e-06	0.0006008964030343558
6.36200e-06	0.0006169244378980502
6.36225e-06	0.0006318669459337507
6.36250e-06	0.0006468094539694006
6.36275e-06	0.0006588169107387658
6.36300e-06	0.0006698107080708515
6.36325e-06	0.0006808045054028999
6.36350e-06	0.0006886563275781811
6.36375e-06	0.0006954230263670555
6.36400e-06	0.000702189725155907
6.36425e-06	0.0007057905518764555
6.36450e-06	0.0007082980020907408
6.36475e-06	0.0007108054523050175
6.36500e-06	0.0007105707715821325
6.36525e-06	0.0007093890590528169
6.36550e-06	0.0007082073465235054
6.36575e-06	0.0007043781100211607
6.36600e-06	0.0006996345155001088
6.36625e-06	0.0006948909209790732
6.36650e-06	0.0006879368693531481
6.36675e-06	0.000680219406630936
6.36700e-06	0.0006725019439087239
6.36725e-06	0.0006623698835972372
6.36750e-06	0.0006514039095271054
6.36775e-06	0.0006404379354569736
6.36800e-06	0.0006294719613868046
6.36825e-06	0.0006185059873166729
6.36850e-06	0.0006075400132465411
6.36875e-06	0.0005950464107195314
6.36900e-06	0.0005820252211553133
6.36925e-06	0.0005690040315910951
6.36950e-06	0.0005559828420268329
6.36975e-06	0.0005429616524626148
6.37000e-06	0.0005299404628983966
6.37025e-06	0.000517419430740819
6.37050e-06	0.0005050711346718009
6.37075e-06	0.000492722838602741
6.37100e-06	0.00048037454253372296
6.37125e-06	0.0004687089574569265
6.37150e-06	0.00045916678157780947
6.37175e-06	0.00044962460569872477
6.37200e-06	0.0004400824298196401
6.37225e-06	0.0004305402539405231
6.37250e-06	0.000424143820911898
6.37275e-06	0.0004188338124931517
6.37300e-06	0.00041624907954076226
6.37325e-06	0.00041460555713104005
6.37350e-06	0.0004155990812616404
6.37375e-06	0.0004175033448884309
6.37400e-06	0.00042202148644458905
6.37425e-06	0.0004274423659054603
6.37450e-06	0.00043582941165193914
6.37475e-06	0.0004452408628258854
6.37500e-06	0.0004576029912794459
6.37525e-06	0.00047098417582386017
6.37550e-06	0.00048699788567642876
6.37575e-06	0.0005039207735568412
6.37600e-06	0.0005231988556599117
6.37625e-06	0.0005432903357697524
6.37650e-06	0.0005656948479896301
6.37675e-06	0.000588898196963396
6.37700e-06	0.0006145560846831402
6.37725e-06	0.0006410616803772157
6.37750e-06	0.0006675672760712013
6.37775e-06	0.0006966617331275138
6.37800e-06	0.0007266502882806098
6.37825e-06	0.0007566388434336042
6.37850e-06	0.0007866273985865987
6.37875e-06	0.0008166159537396947
6.37900e-06	0.0008468164300437298
6.37925e-06	0.0008776760363843524
6.37950e-06	0.0009085356427248704
6.37975e-06	0.0009393952490653884
6.38000e-06	0.000970254855406011
6.38025e-06	0.001001114461746529
6.38050e-06	0.0010286924440831183
6.38075e-06	0.0010551370734259182
6.38100e-06	0.0010815817027686285
6.38125e-06	0.001108026332111339
6.38150e-06	0.001134470961454139
6.38175e-06	0.001159321958159958
6.38200e-06	0.0011792163418383461
6.38225e-06	0.0011991107255168018
6.38250e-06	0.00121900510919519
6.38275e-06	0.0012388994928735782
6.38300e-06	0.0012587938765520337
6.38325e-06	0.001277179348232131
6.38350e-06	0.0012950436968559628
6.38375e-06	0.0013129080454797337
6.38400e-06	0.0013307723941035049
6.38425e-06	0.0013486367427273363
6.38450e-06	0.0013665010913511075
6.38475e-06	0.0013843654399748784
6.38500e-06	0.00140222978859871
6.38525e-06	0.0014200941372224812
6.38550e-06	0.0014379584858462521
6.38575e-06	0.0014558228344700838
6.38600e-06	0.0014736871830938547
6.38625e-06	0.001491551531717626
6.38650e-06	0.0015094158803414576
6.38675e-06	0.0015272304916500977
6.38700e-06	0.001544890406940102
6.38725e-06	0.001562550322230166
6.38750e-06	0.0015802102375201703
6.38775e-06	0.0015978701528102342
6.38800e-06	0.0016155300681002386
6.38825e-06	0.0016331899833902427
6.38850e-06	0.0016508498986803068
6.38875e-06	0.001668509813970311
6.38900e-06	0.0016861697292603153
6.38925e-06	0.0017038296445503792
6.38950e-06	0.0017214895598403836
6.38975e-06	0.0017391494751303877
6.39000e-06	0.0017568093904204518
6.39025e-06	0.001774469305710456
6.39050e-06	0.0017892461588066486
6.39075e-06	0.0018030273075917997
6.39100e-06	0.001816808456376904
6.39125e-06	0.0018305896051620085
6.39150e-06	0.0018443707539471594
6.39175e-06	0.0018581519027322637
6.39200e-06	0.0018685214465122115
6.39225e-06	0.0018777127466113063
6.39250e-06	0.001886904046710401
6.39275e-06	0.0018960953468095268
6.39300e-06	0.0019052866469086215
6.39325e-06	0.0019144779470077163
6.39350e-06	0.0019219532844508332
6.39375e-06	0.0019255488729623055
6.39400e-06	0.0019280092110045561
6.39425e-06	0.0019304695490468152
6.39450e-06	0.001932929887089066
6.39475e-06	0.0019353902251313165
