Time(s)	Current(A)
5.00000e-06	0.014015285473853173
5.00025e-06	0.014021294192481609
5.00050e-06	0.014027302911110064
5.00075e-06	0.0140333116297385
5.00100e-06	0.014039320348366937
5.00125e-06	0.014045329066995394
5.00150e-06	0.01405133778562383
5.00175e-06	0.014057346504252267
5.00200e-06	0.014063355222880724
5.00225e-06	0.01406936394150916
5.00250e-06	0.014075372660137597
5.00275e-06	0.014081381378766054
5.00300e-06	0.01408739009739449
5.00325e-06	0.014093398816022926
5.00350e-06	0.014099407534651382
5.00375e-06	0.014103892242122667
5.00400e-06	0.014107087920317042
5.00425e-06	0.014110283598511407
5.00450e-06	0.01411347927670577
5.00475e-06	0.014116674954900144
5.00500e-06	0.014119870633094509
5.00525e-06	0.014123066311288873
5.00550e-06	0.014126261989483248
5.00575e-06	0.014129457667677611
5.00600e-06	0.01412534003767431
5.00625e-06	0.014115036712551019
5.00650e-06	0.014104733387427761
5.00675e-06	0.014094430062304505
5.00700e-06	0.014084126737181213
5.00725e-06	0.014073823412057955
5.00750e-06	0.014063520086934699
5.00775e-06	0.014053216761811406
5.00800e-06	0.01404291343668815
5.00825e-06	0.014021325552477508
5.00850e-06	0.013990193035361101
5.00875e-06	0.013959060518244696
5.00900e-06	0.013927928001128185
5.00925e-06	0.01389679548401178
5.00950e-06	0.013865662966895375
5.00975e-06	0.013834530449778865
5.01000e-06	0.013803397932662458
5.01025e-06	0.013772265415546053
5.01050e-06	0.013741132898429542
5.01075e-06	0.01370950658273352
5.01100e-06	0.013666551235973216
5.01125e-06	0.013623595889212768
5.01150e-06	0.013580640542452465
5.01175e-06	0.013537685195692163
5.01200e-06	0.013494729848931715
5.01225e-06	0.013451774502171412
5.01250e-06	0.013408819155410964
5.01275e-06	0.01336586380865066
5.01300e-06	0.013322908461890359
5.01325e-06	0.01327995311512991
5.01350e-06	0.013239756603064501
5.01375e-06	0.013201893550747428
5.01400e-06	0.013164030498430224
5.01425e-06	0.013126167446113151
5.01450e-06	0.013088304393796076
5.01475e-06	0.013050441341478874
5.01500e-06	0.013012578289161799
5.01525e-06	0.012981962079353078
5.01550e-06	0.01295747534708296
5.01575e-06	0.012932988614812922
5.01600e-06	0.012908501882542885
5.01625e-06	0.012884015150272767
5.01650e-06	0.01285952841800273
5.01675e-06	0.012835041685732611
5.01700e-06	0.012821891847750806
5.01725e-06	0.012818330908494923
5.01750e-06	0.012814769969239028
5.01775e-06	0.012811209029983145
5.01800e-06	0.012807648090727262
5.01825e-06	0.012804087151471369
5.01850e-06	0.012800526212215486
5.01875e-06	0.012796965272959603
5.01900e-06	0.012793404333703708
5.01925e-06	0.012789843394447825
5.01950e-06	0.012786282455191943
5.01975e-06	0.012782721515936048
5.02000e-06	0.012779160576680165
5.02025e-06	0.012775599637424282
5.02050e-06	0.012772038698168387
5.02075e-06	0.012768477758912504
5.02100e-06	0.01276491681965661
5.02125e-06	0.012768064650588867
5.02150e-06	0.012776886850203475
5.02175e-06	0.012785709049818114
5.02200e-06	0.012794531249432722
5.02225e-06	0.012803353449047332
5.02250e-06	0.012812175648661972
5.02275e-06	0.01282099784827658
5.02300e-06	0.01282982004789119
5.02325e-06	0.012838642247505827
5.02350e-06	0.012847464447120437
5.02375e-06	0.012856286646735045
5.02400e-06	0.012865108846349685
5.02425e-06	0.012873931045964293
5.02450e-06	0.012882753245578903
5.02475e-06	0.012891575445193542
5.02500e-06	0.01290039764480815
5.02525e-06	0.01290921984442279
5.02550e-06	0.012912604448473936
5.02575e-06	0.012911389860556241
5.02600e-06	0.012910175272638541
5.02625e-06	0.012908960684720847
5.02650e-06	0.012907746096803153
5.02675e-06	0.012906531508885453
5.02700e-06	0.012905316920967759
5.02725e-06	0.012904102333050064
5.02750e-06	0.012902887745132366
5.02775e-06	0.01290167315721467
5.02800e-06	0.012900458569296976
5.02825e-06	0.012899243981379278
5.02850e-06	0.012898029393461583
5.02875e-06	0.012890026890304756
5.02900e-06	0.012876283076510316
5.02925e-06	0.012862539262715923
5.02950e-06	0.012848795448921485
5.02975e-06	0.012835051635127092
5.03000e-06	0.012821307821332699
5.03025e-06	0.012807564007538259
5.03050e-06	0.012793820193743866
5.03075e-06	0.012780076379949473
5.03100e-06	0.012766332566155034
5.03125e-06	0.012752588752360641
5.03150e-06	0.012738844938566248
5.03175e-06	0.012725101124771808
5.03200e-06	0.01270965219672943
5.03225e-06	0.012692761059963947
5.03250e-06	0.012675869923198408
5.03275e-06	0.012658978786432925
5.03300e-06	0.012642087649667443
5.03325e-06	0.012625196512901903
5.03350e-06	0.01260830537613642
5.03375e-06	0.012591414239370881
5.03400e-06	0.012574523102605399
5.03425e-06	0.012557631965839916
5.03450e-06	0.012540740829074377
5.03475e-06	0.012523849692308894
5.03500e-06	0.012507449197672207
5.03525e-06	0.012502305316828074
5.03550e-06	0.012497161435983959
5.03575e-06	0.012492017555139843
5.03600e-06	0.01248687367429571
5.03625e-06	0.012481729793451595
5.03650e-06	0.01247658591260748
5.03675e-06	0.012471442031763346
5.03700e-06	0.012466298150919231
5.03725e-06	0.012461154270075115
5.03750e-06	0.012456010389230983
5.03775e-06	0.012450866508386867
5.03800e-06	0.012445722627542734
5.03825e-06	0.012451084206808823
5.03850e-06	0.01246533144650921
5.03875e-06	0.012479578686209643
5.03900e-06	0.012493825925910028
5.03925e-06	0.012508073165610414
5.03950e-06	0.012522320405310847
5.03975e-06	0.012536567645011232
5.04000e-06	0.012550814884711619
5.04025e-06	0.012565062124412052
5.04050e-06	0.012579309364112437
5.04075e-06	0.012593556603812823
5.04100e-06	0.012607803843513257
5.04125e-06	0.012622051083213643
5.04150e-06	0.012636298322914028
5.04175e-06	0.0126536317362278
5.04200e-06	0.012673575476978862
5.04225e-06	0.012693519217729992
5.04250e-06	0.012713462958481053
5.04275e-06	0.012733406699232116
5.04300e-06	0.012753350439983246
5.04325e-06	0.012773294180734307
5.04350e-06	0.01279323792148537
5.04375e-06	0.0128131816622365
5.04400e-06	0.01283312540298756
5.04425e-06	0.012853069143738623
5.04450e-06	0.012873012884489754
5.04475e-06	0.012892956625240815
5.04500e-06	0.012912900365991877
5.04525e-06	0.01292478487554454
5.04550e-06	0.012929852778206043
5.04575e-06	0.012934920680867549
5.04600e-06	0.01293998858352907
5.04625e-06	0.012945056486190574
5.04650e-06	0.012950124388852095
5.04675e-06	0.0129551922915136
5.04700e-06	0.012960260194175104
5.04725e-06	0.012965328096836625
5.04750e-06	0.012970395999498131
5.04775e-06	0.012974663234510195
5.04800e-06	0.01296056105938793
5.04825e-06	0.012946458884265712
5.04850e-06	0.012932356709143493
5.04875e-06	0.012918254534021229
5.04900e-06	0.01290415235889901
5.04925e-06	0.012890050183776793
5.04950e-06	0.012875948008654527
5.04975e-06	0.01286184583353231
5.05000e-06	0.01284774365841009
5.05025e-06	0.012833641483287824
5.05050e-06	0.012812934547525518
5.05075e-06	0.01278664121576824
5.05100e-06	0.012760347884011052
5.05125e-06	0.012734054552253864
5.05150e-06	0.012707761220496588
5.05175e-06	0.0126814678887394
5.05200e-06	0.012655174556982212
5.05225e-06	0.012628881225224936
5.05250e-06	0.012602587893467748
5.05275e-06	0.01257629456171056
5.05300e-06	0.012550001229953282
5.05325e-06	0.012523707898196094
5.05350e-06	0.01250014360209683
5.05375e-06	0.012478887561315023
5.05400e-06	0.012457631520533287
5.05425e-06	0.01243637547975155
5.05450e-06	0.012415119438969741
5.05475e-06	0.012393863398188005
5.05500e-06	0.012372607357406197
5.05525e-06	0.012351351316624461
5.05550e-06	0.012330095275842725
5.05575e-06	0.012308839235060915
5.05600e-06	0.012287583194279179
5.05625e-06	0.012266327153497443
5.05650e-06	0.012255433397013911
5.05675e-06	0.012253304200920911
5.05700e-06	0.01225117500482791
5.05725e-06	0.012249045808734904
5.05750e-06	0.012246916612641903
5.05775e-06	0.012244787416548901
5.05800e-06	0.012242658220455895
5.05825e-06	0.012240529024362894
5.05850e-06	0.012238399828269894
5.05875e-06	0.012236270632176886
5.05900e-06	0.012234141436083885
5.05925e-06	0.012232012239990878
5.05950e-06	0.012229883043897877
5.05975e-06	0.012227753847804878
5.06000e-06	0.012226197559220503
5.06025e-06	0.012237785267381297
5.06050e-06	0.012249372975542091
5.06075e-06	0.012260960683702924
5.06100e-06	0.012272548391863718
5.06125e-06	0.01228413610002451
5.06150e-06	0.012295723808185343
5.06175e-06	0.012307311516346137
5.06200e-06	0.012318899224506932
5.06225e-06	0.012330486932667764
5.06250e-06	0.012342074640828558
5.06275e-06	0.012353662348989351
5.06300e-06	0.012365250057150185
5.06325e-06	0.012376837765310978
5.06350e-06	0.01238842547347181
5.06375e-06	0.012397115532162146
5.06400e-06	0.012403354719689357
5.06425e-06	0.012409593907216588
5.06450e-06	0.012415833094743799
5.06475e-06	0.01242207228227101
5.06500e-06	0.012428311469798241
5.06525e-06	0.012434550657325452
5.06550e-06	0.012440789844852662
5.06575e-06	0.012447029032379894
5.06600e-06	0.012453268219907105
5.06625e-06	0.012459507407434315
5.06650e-06	0.012465746594961547
5.06675e-06	0.012471985782488757
5.06700e-06	0.012478224970015968
5.06725e-06	0.0124844641575432
5.06750e-06	0.01249070334507041
5.06775e-06	0.012496942532597644
5.06800e-06	0.012503181720124854
5.06825e-06	0.012509420907652063
5.06850e-06	0.012515660095179296
5.06875e-06	0.012521899282706507
5.06900e-06	0.012528138470233718
5.06925e-06	0.01253437765776095
5.06950e-06	0.012540328674822528
5.06975e-06	0.012539668307671004
5.07000e-06	0.012539007940519476
5.07025e-06	0.012538347573367952
5.07050e-06	0.012537687206216428
5.07075e-06	0.012537026839064902
5.07100e-06	0.012536366471913378
5.07125e-06	0.012535706104761854
5.07150e-06	0.012535045737610327
5.07175e-06	0.012534385370458803
5.07200e-06	0.012533725003307277
5.07225e-06	0.012533064636155753
5.07250e-06	0.012532404269004229
5.07275e-06	0.012531743901852702
5.07300e-06	0.012531083534701178
5.07325e-06	0.012530423167549654
5.07350e-06	0.012529762800398128
5.07375e-06	0.012529102433246604
5.07400e-06	0.01252844206609508
5.07425e-06	0.012527781698943554
5.07450e-06	0.012527121331792028
5.07475e-06	0.012526460964640504
5.07500e-06	0.012525800597488979
5.07525e-06	0.012525140230337455
5.07550e-06	0.012520913807154919
5.07575e-06	0.012513671165489177
5.07600e-06	0.012506428523823457
5.07625e-06	0.012499185882157714
5.07650e-06	0.012491943240491995
5.07675e-06	0.012484700598826276
5.07700e-06	0.012477457957160534
5.07725e-06	0.012470215315494814
5.07750e-06	0.012462972673829096
5.07775e-06	0.012455730032163352
5.07800e-06	0.012448487390497634
5.07825e-06	0.01243501463282825
5.07850e-06	0.012416272358673871
5.07875e-06	0.012397530084519553
5.07900e-06	0.012378787810365237
5.07925e-06	0.012360045536210857
5.07950e-06	0.012341303262056541
5.07975e-06	0.012322560987902225
5.08000e-06	0.012303818713747845
5.08025e-06	0.012285076439593529
5.08050e-06	0.012266334165439149
5.08075e-06	0.012247591891284833
5.08100e-06	0.01222562092317776
5.08125e-06	0.01220091908200212
5.08150e-06	0.012176217240826563
5.08175e-06	0.012151515399651007
5.08200e-06	0.012126813558475367
5.08225e-06	0.01210211171729981
5.08250e-06	0.012077409876124254
5.08275e-06	0.012052708034948614
5.08300e-06	0.01202800619377306
5.08325e-06	0.012003304352597503
5.08350e-06	0.011981036001411547
5.08375e-06	0.011960825929013362
5.08400e-06	0.011940615856615176
5.08425e-06	0.011920405784216923
5.08450e-06	0.011900195711818736
5.08475e-06	0.01187998563942055
5.08500e-06	0.011859775567022297
5.08525e-06	0.01183956549462411
5.08550e-06	0.011819355422225857
5.08575e-06	0.01179914534982767
5.08600e-06	0.011783413808338753
5.08625e-06	0.011771470268941129
5.08650e-06	0.011759526729543545
5.08675e-06	0.01174758319014596
5.08700e-06	0.011735639650748336
5.08725e-06	0.011723696111350752
5.08750e-06	0.011711752571953168
5.08775e-06	0.011699809032555544
5.08800e-06	0.01168786549315796
5.08825e-06	0.011675921953760375
5.08850e-06	0.011663978414362751
5.08875e-06	0.011652034874965167
5.08900e-06	0.011640091335567582
5.08925e-06	0.011628147796169958
5.08950e-06	0.011616204256772374
5.08975e-06	0.01160426071737475
5.09000e-06	0.011592317177977166
5.09025e-06	0.011580373638579581
5.09050e-06	0.01157073997211861
5.09075e-06	0.011563060027467615
5.09100e-06	0.01155538008281662
5.09125e-06	0.0115477001381656
5.09150e-06	0.011540020193514605
5.09175e-06	0.01153234024886361
5.09200e-06	0.011524660304212592
5.09225e-06	0.011516980359561597
5.09250e-06	0.011509300414910602
5.09275e-06	0.011501620470259582
5.09300e-06	0.011493940525608587
5.09325e-06	0.011486260580957593
5.09350e-06	0.011478580636306572
5.09375e-06	0.011470900691655577
5.09400e-06	0.011463220747004557
5.09425e-06	0.011455540802353564
5.09450e-06	0.01144786085770257
5.09475e-06	0.011440180913051549
5.09500e-06	0.011436073276989105
5.09525e-06	0.011434987147906531
5.09550e-06	0.011433901018823954
5.09575e-06	0.01143281488974138
5.09600e-06	0.011431728760658805
5.09625e-06	0.011430642631576228
5.09650e-06	0.011429556502493655
5.09675e-06	0.011428470373411081
5.09700e-06	0.011427384244328504
5.09725e-06	0.011434613478419448
5.09750e-06	0.011448875959287681
5.09775e-06	0.011463138440155963
5.09800e-06	0.011477400921024198
5.09825e-06	0.01149166340189248
5.09850e-06	0.011505925882760714
5.09875e-06	0.011520188363628947
5.09900e-06	0.011534450844497229
5.09925e-06	0.011548713325365462
5.09950e-06	0.011571385726241742
5.09975e-06	0.011601171351346237
5.10000e-06	0.01163095697645063
5.10025e-06	0.011660742601555023
5.10050e-06	0.011690528226659518
5.10075e-06	0.01172031385176391
5.10100e-06	0.011750099476868303
5.10125e-06	0.011779885101972799
5.10150e-06	0.011809670727077191
5.10175e-06	0.011839456352181584
5.10200e-06	0.01186924197728608
5.10225e-06	0.011899027602390472
5.10250e-06	0.011928813227494967
5.10275e-06	0.01195859885259936
5.10300e-06	0.011985649225152016
5.10325e-06	0.012010386084056463
5.10350e-06	0.012035122942960825
5.10375e-06	0.012059859801865186
5.10400e-06	0.012084596660769631
5.10425e-06	0.012109333519673993
5.10450e-06	0.012134070378578355
5.10475e-06	0.0121588072374828
5.10500e-06	0.012183544096387161
5.10525e-06	0.012208280955291523
5.10550e-06	0.01223301781419597
5.10575e-06	0.012257754673100332
5.10600e-06	0.012282491532004693
5.10625e-06	0.012307228390909138
5.10650e-06	0.012324180402818194
5.10675e-06	0.012334547885718848
5.10700e-06	0.012344915368619468
5.10725e-06	0.01234676656158
5.10750e-06	0.012341414561184526
5.10775e-06	0.01233606256078907
5.10800e-06	0.012330710560393613
5.10825e-06	0.012325358559998138
5.10850e-06	0.012320006559602682
5.10875e-06	0.012314654559207225
5.10900e-06	0.012309302558811751
5.10925e-06	0.012303950558416295
5.10950e-06	0.012298598558020839
5.10975e-06	0.012293246557625363
5.11000e-06	0.012287894557229907
5.11025e-06	0.01228254255683445
5.11050e-06	0.012277190556438977
5.11075e-06	0.01227183855604352
5.11100e-06	0.012266486555648045
5.11125e-06	0.012260689836656721
5.11150e-06	0.012244690109931372
5.11175e-06	0.012228690383205969
5.11200e-06	0.01221269065648062
5.11225e-06	0.01219669092975527
5.11250e-06	0.012180691203029868
5.11275e-06	0.01216469147630452
5.11300e-06	0.012148691749579171
5.11325e-06	0.012132692022853768
5.11350e-06	0.012116692296128419
5.11375e-06	0.012100692569403071
5.11400e-06	0.012084692842677668
5.11425e-06	0.012068693115952319
5.11450e-06	0.01205269338922697
5.11475e-06	0.012036693662501567
5.11500e-06	0.012020693935776218
5.11525e-06	0.012004694209050815
5.11550e-06	0.01199346006912254
5.11575e-06	0.011986256727040505
5.11600e-06	0.011979053384958445
5.11625e-06	0.011971850042876412
5.11650e-06	0.011964646700794376
5.11675e-06	0.011957443358712317
5.11700e-06	0.011950240016630281
5.11725e-06	0.011943036674548246
5.11750e-06	0.011935833332466186
5.11775e-06	0.011928629990384151
5.11800e-06	0.011921426648302116
5.11825e-06	0.011914223306220056
5.11850e-06	0.01190701996413802
5.11875e-06	0.011899816622055987
5.11900e-06	0.011892613279973928
5.11925e-06	0.011885409937891892
5.11950e-06	0.011881960404873495
5.11975e-06	0.008460556228192362
5.12000e-06	0.0036566113421359855
5.12025e-06	0.002157200542208097
5.12050e-06	0.0033360009168662626
5.12075e-06	0.006172198793369082
5.12100e-06	0.009821583968279823
5.12125e-06	0.011504939221175363
5.12150e-06	0.0112677642897398
5.12175e-06	0.009343374709432068
5.12200e-06	0.006590233551454048
5.12225e-06	0.005622714653419443
5.12250e-06	0.006361406934536108
5.12275e-06	0.008164957252594024
5.12300e-06	0.01041739527661109
5.12325e-06	0.011515073832815994
5.12350e-06	0.011385028758964535
5.12375e-06	0.010190918703413248
5.12400e-06	0.008499428484112982
5.12425e-06	0.007775657052899955
5.12450e-06	0.008147763592499628
5.12475e-06	0.009405488305211181
5.12500e-06	0.011184115070858248
5.12525e-06	0.012339283114016459
5.12550e-06	0.012494504960229878
5.12575e-06	0.011770747147301678
5.12600e-06	0.010534883882617698
5.12625e-06	0.009766488471965457
5.12650e-06	0.009848042870237416
5.12675e-06	0.010621663062765475
5.12700e-06	0.011731537659514844
5.12725e-06	0.012459034407929389
5.12750e-06	0.012560437970231085
5.12775e-06	0.012111558560544664
5.12800e-06	0.011342224142732836
5.12825e-06	0.01086601743058442
5.12850e-06	0.010922463010037176
5.12875e-06	0.011412592887904438
5.12900e-06	0.012113470507391704
5.12925e-06	0.012574919026554327
5.12950e-06	0.012644273747948997
5.12975e-06	0.012369023267296036
5.13000e-06	0.011893125595056607
5.13025e-06	0.011600895942732392
5.13050e-06	0.011642313858523446
5.13075e-06	0.011955323590172954
5.13100e-06	0.012400223954109663
5.13125e-06	0.012694989992499454
5.13150e-06	0.012743972738547217
5.13175e-06	0.012576904299446594
5.13200e-06	0.012283937577005518
5.13225e-06	0.012105769099197859
5.13250e-06	0.012136292400657665
5.13275e-06	0.012336580292181655
5.13300e-06	0.012619073195743121
5.13325e-06	0.012807070999041385
5.13350e-06	0.012840632595084285
5.13375e-06	0.012738354858784476
5.13400e-06	0.012556679029450324
5.13425e-06	0.01244633657392248
5.13450e-06	0.01246609293093159
5.13475e-06	0.012591512902797631
5.13500e-06	0.012767701217529782
5.13525e-06	0.01288392812961743
5.13550e-06	0.012902582050704645
5.13575e-06	0.012839101891192946
5.13600e-06	0.012726648881259331
5.13625e-06	0.012642714262192769
5.13650e-06	0.012648868829064677
5.13675e-06	0.012716310710495922
5.13700e-06	0.01281290236566088
5.13725e-06	0.012886822727506094
5.13750e-06	0.012889064883156281
5.13775e-06	0.012839120893943587
5.13800e-06	0.012757866724598409
5.13825e-06	0.012694250144146123
5.13850e-06	0.012686379709138832
5.13875e-06	0.012716413712122066
5.13900e-06	0.012764300921924931
5.13925e-06	0.012797854151600572
5.13950e-06	0.01278611745908402
5.13975e-06	0.012741467095148033
5.14000e-06	0.012677046581339306
5.14025e-06	0.012623641873072827
5.14050e-06	0.012605076138230377
5.14075e-06	0.012610281459125234
5.14100e-06	0.012626743982615424
5.14125e-06	0.012634290471327395
5.14150e-06	0.01261368532985681
5.14175e-06	0.012572749348004666
5.14200e-06	0.012519746383299437
5.14225e-06	0.012473805278507706
5.14250e-06	0.012450212439803843
5.14275e-06	0.012442050439656797
5.14300e-06	0.012441490714789451
5.14325e-06	0.012435602867125502
5.14350e-06	0.012412904660537648
5.14375e-06	0.01237826940868291
5.14400e-06	0.012336867463628378
5.14425e-06	0.012300244186293472
5.14450e-06	0.012278748874765676
5.14475e-06	0.012267970774557876
5.14500e-06	0.012262981213864356
5.14525e-06	0.012255110453168122
5.14550e-06	0.01223817367680961
5.14575e-06	0.012215166347134139
5.14600e-06	0.012189296999979045
5.14625e-06	0.01216696148245801
5.14650e-06	0.012155760950057872
5.14675e-06	0.012152550257454557
5.14700e-06	0.012154092061976833
5.14725e-06	0.012153747188277908
5.14750e-06	0.012148774857052036
5.14775e-06	0.012142909290437
5.14800e-06	0.01213485288450526
5.14825e-06	0.01213016536378965
5.14850e-06	0.012133740711153598
5.14875e-06	0.012139603161904216
5.14900e-06	0.01215107519337833
5.14925e-06	0.012161584936689729
5.14950e-06	0.012169734474878902
5.14975e-06	0.012177462952991814
5.15000e-06	0.012184158696642034
5.15025e-06	0.012193499080598283
5.15050e-06	0.012209325976431299
5.15075e-06	0.012225152872264368
5.15100e-06	0.012241260115165032
5.15125e-06	0.012258054965593925
5.15150e-06	0.012274849816022875
5.15175e-06	0.012291644666451768
