Time(s)	Current(A)
1.00500e-05	-0.007959402267506216
1.00503e-05	-0.008021153876908261
1.00505e-05	-0.008082905486310304
1.00508e-05	-0.00814465709571193
1.00510e-05	-0.008206408705113973
1.00513e-05	-0.008268160314516016
1.00515e-05	-0.008329298680559179
1.00518e-05	-0.008389150125816843
1.00520e-05	-0.008449001571074507
1.00523e-05	-0.008507329740783219
1.00525e-05	-0.008562461243232731
1.00528e-05	-0.008617592745682244
1.00530e-05	-0.008668533899379983
1.00533e-05	-0.008710681403975592
1.00535e-05	-0.008752828908571202
1.00538e-05	-0.008794976413166527
1.00540e-05	-0.008837123917762136
1.00543e-05	-0.008879271422357745
1.00545e-05	-0.00892141892695307
1.00548e-05	-0.008945061537390463
1.00550e-05	-0.008964717028687544
1.00552e-05	-0.008984372519984494
1.00555e-05	-0.009004028011281575
1.00558e-05	-0.009023683502578657
1.00560e-05	-0.009043338993875607
1.00563e-05	-0.00905525115084647
1.00565e-05	-0.00905091354699928
1.00567e-05	-0.00904657594315212
1.00570e-05	-0.00904223833930493
1.00573e-05	-0.009037900735457741
1.00575e-05	-0.00903356313161058
1.00578e-05	-0.00902922552776339
1.00580e-05	-0.009024887923916201
1.00582e-05	-0.009004183573291153
1.00585e-05	-0.008979952795073794
1.00588e-05	-0.008955722016856434
1.00590e-05	-0.008931491238639075
1.00593e-05	-0.00890726046042188
1.00595e-05	-0.008883029682204521
1.00598e-05	-0.00885879890398716
1.00600e-05	-0.00883118093162773
1.00603e-05	-0.008796454768876215
1.00605e-05	-0.008761728606124699
1.00608e-05	-0.008727002443373419
1.00610e-05	-0.008692276280621903
1.00613e-05	-0.008657550117870387
1.00615e-05	-0.008622823955119107
1.00618e-05	-0.008588097792367591
1.00620e-05	-0.008554859032730506
1.00623e-05	-0.008521940753361056
1.00625e-05	-0.008489022473991385
1.00628e-05	-0.008456104194621712
1.00630e-05	-0.008423185915252263
1.00633e-05	-0.008390267635882591
1.00635e-05	-0.008357349356512918
1.00637e-05	-0.008326975299974696
1.00640e-05	-0.008301940417846458
1.00643e-05	-0.008276905535718219
1.00645e-05	-0.008251438056960193
1.00648e-05	-0.008225062753294396
1.00650e-05	-0.0081986874496286
1.00652e-05	-0.00817231214596298
1.00655e-05	-0.008145936842297185
1.00658e-05	-0.008119561538631387
1.00660e-05	-0.00809318623496577
1.00663e-05	-0.008066810931299972
1.00665e-05	-0.008035909872392544
1.00667e-05	-0.008004033680895912
1.00670e-05	-0.007972157489399063
1.00673e-05	-0.007940281297902214
1.00675e-05	-0.007908405106405364
1.00678e-05	-0.007876528914908731
1.00680e-05	-0.007844652723411883
1.00683e-05	-0.007810839164669578
1.00685e-05	-0.007772959947253787
1.00688e-05	-0.007735080729837739
1.00690e-05	-0.007697201512421691
1.00693e-05	-0.0076593222950059
1.00695e-05	-0.0076214430775898515
1.00698e-05	-0.0075835638601738035
1.00700e-05	-0.007545043425163155
1.00703e-05	-0.007505177364080247
1.00705e-05	-0.0074653113029973395
1.00708e-05	-0.007425445241914701
1.00710e-05	-0.007385579180831793
1.00713e-05	-0.007345713119748885
1.00715e-05	-0.007305847058666247
1.00718e-05	-0.007266760175611569
1.00720e-05	-0.00722930843525727
1.00722e-05	-0.007191856694903224
1.00725e-05	-0.007155444717350524
1.00728e-05	-0.007121214732222677
1.00730e-05	-0.007086984747095063
1.00733e-05	-0.007054008779225449
1.00735e-05	-0.007023664427099328
1.00737e-05	-0.0069947082454780325
1.00740e-05	-0.006968665206662773
1.00743e-05	-0.006944669632928702
1.00745e-05	-0.0069249707634918565
1.00748e-05	-0.006907820404980149
1.00750e-05	-0.006896018219653294
1.00752e-05	-0.0068873881224031696
1.00755e-05	-0.0068854148050879836
1.00758e-05	-0.006883441487772798
1.00760e-05	-0.00688536908436782
1.00763e-05	-0.0068954829370872625
1.00765e-05	-0.006905596789806774
1.00768e-05	-0.006921637330570913
1.00770e-05	-0.006950115312257313
1.00773e-05	-0.006978593293943905
1.00775e-05	-0.007007071275630497
1.00778e-05	-0.0070355492573168955
1.00780e-05	-0.007064027239003488
1.00783e-05	-0.00709887885244787
1.00785e-05	-0.0071471058397697155
1.00788e-05	-0.007195332827091887
1.00790e-05	-0.007243559814414059
1.00793e-05	-0.007291786801735903
1.00795e-05	-0.007340013789058075
1.00798e-05	-0.0073914136659698
1.00800e-05	-0.007449472004830077
1.00803e-05	-0.007507530343690748
1.00805e-05	-0.007566673480367269
1.00808e-05	-0.007628093117619739
1.00810e-05	-0.007689512754872627
1.00813e-05	-0.007751035987686961
1.00815e-05	-0.007812776620786813
1.00818e-05	-0.007874517253887084
1.00820e-05	-0.007935317261331048
1.00822e-05	-0.007994143320433661
1.00825e-05	-0.008052969379536673
1.00828e-05	-0.008109312526548236
1.00830e-05	-0.008160445162692646
1.00833e-05	-0.008211577798837404
1.00835e-05	-0.008262710434982161
1.00837e-05	-0.008309898274377748
1.00840e-05	-0.008348807767391964
1.00843e-05	-0.00838771726040618
1.00845e-05	-0.008426626753420397
1.00848e-05	-0.008461097145568187
1.00850e-05	-0.008486251870285327
1.00853e-05	-0.008511406595002468
1.00855e-05	-0.008536561319719438
1.00858e-05	-0.008561716044436578
1.00860e-05	-0.008586870769153718
1.00863e-05	-0.008612025493870688
1.00865e-05	-0.008637180218587828
1.00868e-05	-0.008662334943304968
1.00870e-05	-0.008687489668021938
1.00873e-05	-0.008712644392739078
1.00875e-05	-0.008737799117456218
1.00878e-05	-0.008762953842173187
1.00880e-05	-0.008777621838576109
1.00883e-05	-0.00879003033352545
1.00885e-05	-0.008802438828474706
1.00888e-05	-0.008814847323424047
1.00890e-05	-0.008827255818373389
1.00893e-05	-0.008839664313322644
1.00895e-05	-0.008852072808271987
1.00898e-05	-0.008864481303221327
1.00900e-05	-0.008876889798170584
1.00903e-05	-0.008889298293119925
1.00905e-05	-0.008901706788069265
1.00907e-05	-0.008914115283018522
1.00910e-05	-0.008924942008727085
1.00913e-05	-0.008932449315335371
1.00915e-05	-0.008939956621943607
1.00918e-05	-0.008947463928551894
1.00920e-05	-0.00895497123516018
1.00922e-05	-0.008962478541768416
1.00925e-05	-0.008968083232906633
1.00928e-05	-0.008973277980896461
1.00930e-05	-0.00897847272888629
1.00933e-05	-0.008983667476876083
1.00935e-05	-0.008988862224865909
1.00938e-05	-0.008993488353997032
1.00940e-05	-0.008996921209007054
1.00943e-05	-0.00899785755125184
1.00945e-05	-0.008993554840957098
1.00948e-05	-0.008989252130662385
1.00950e-05	-0.008980538994633577
1.00953e-05	-0.008962570367319764
1.00955e-05	-0.008944601740006072
1.00958e-05	-0.00892259839619932
1.00960e-05	-0.008892128005084767
1.00963e-05	-0.008861657613970422
1.00965e-05	-0.008824538411633661
1.00968e-05	-0.008773466358022381
1.00970e-05	-0.00872239430441145
1.00973e-05	-0.008671322250800171
1.00975e-05	-0.008620250197188893
1.00978e-05	-0.00856206882303451
1.00980e-05	-0.00848896819656585
1.00983e-05	-0.008415867570097192
1.00985e-05	-0.008342766943629029
1.00988e-05	-0.008269666317160371
1.00990e-05	-0.008191851752004715
1.00992e-05	-0.008104144758981757
1.00995e-05	-0.008016437765958201
1.00998e-05	-0.007926935007998764
1.01000e-05	-0.007833663750643587
1.01003e-05	-0.00773940708309033
1.01005e-05	-0.007643082484673644
1.01007e-05	-0.007546203564843364
1.01010e-05	-0.007448023714902522
1.01013e-05	-0.007349604722991943
1.01015e-05	-0.007251527569304292
1.01018e-05	-0.007154373564220674
1.01020e-05	-0.007058698740838834
1.01023e-05	-0.0069649524065006985
1.01025e-05	-0.006873465584959644
1.01028e-05	-0.006784625374959593
1.01030e-05	-0.006698983691441546
1.01033e-05	-0.006617164685624924
1.01035e-05	-0.00653979187797233
1.01038e-05	-0.006467489239799121
1.01040e-05	-0.006401582010578548
1.01043e-05	-0.006341288187097942
1.01045e-05	-0.0062837997093781765
1.01048e-05	-0.0062321983851480935
1.01050e-05	-0.006183339663235194
1.01053e-05	-0.006140236424667484
1.01055e-05	-0.006101053160989713
1.01058e-05	-0.006070096153829924
1.01060e-05	-0.006039139146670135
1.01063e-05	-0.006012538913963702
1.01065e-05	-0.005995081582743393
1.01068e-05	-0.005977624251523084
1.01070e-05	-0.005965329065084928
1.01073e-05	-0.005963866888642778
1.01075e-05	-0.0059624047122006285
1.01077e-05	-0.005960942535758488
1.01080e-05	-0.0059594803593163385
1.01083e-05	-0.005958018182874188
1.01085e-05	-0.0059706517582026174
1.01088e-05	-0.005986322445840202
1.01090e-05	-0.006001993133477787
1.01092e-05	-0.006017663821115265
1.01095e-05	-0.006033334508752849
1.01098e-05	-0.006052754577039785
1.01100e-05	-0.006080042901597603
1.01103e-05	-0.006107331226155237
1.01105e-05	-0.006134619550713054
1.01108e-05	-0.006161907875270872
1.01110e-05	-0.006189196199828505
1.01113e-05	-0.006216484524386323
1.01115e-05	-0.006246234977455945
1.01118e-05	-0.00627651592800659
1.01120e-05	-0.006306796878557439
1.01123e-05	-0.006337077829108289
1.01125e-05	-0.006367358779658933
1.01128e-05	-0.0063976397302097825
1.01130e-05	-0.006426514549428688
1.01133e-05	-0.00645243853417465
1.01135e-05	-0.006478362518920789
1.01138e-05	-0.006502451990585188
1.01140e-05	-0.006522691647997023
1.01143e-05	-0.006542931305408996
1.01145e-05	-0.006559664944373576
1.01148e-05	-0.006569041034393463
1.01150e-05	-0.006578417124413413
1.01153e-05	-0.006587793214433364
1.01155e-05	-0.006597169304453251
1.01158e-05	-0.006606545394473201
1.01160e-05	-0.006615921484493152
1.01162e-05	-0.006620323699421477
1.01165e-05	-0.006614287997384506
1.01168e-05	-0.006608252295347534
1.01170e-05	-0.006602216593310604
1.01173e-05	-0.006596180891273632
1.01175e-05	-0.006590145189236661
1.01177e-05	-0.0065841094871997305
1.01180e-05	-0.006574093676702431
1.01183e-05	-0.006555725416483884
1.01185e-05	-0.006537357156265337
1.01188e-05	-0.0065189888960469145
1.01190e-05	-0.006500620635828368
1.01193e-05	-0.006482252375609821
1.01195e-05	-0.006463884115391398
1.01198e-05	-0.006439691868857196
1.01200e-05	-0.0064142447690293935
1.01203e-05	-0.0063887976692017625
1.01205e-05	-0.00636335056937396
1.01208e-05	-0.006337903469546156
1.01210e-05	-0.006312456369718526
1.01213e-05	-0.006286476348489716
1.01215e-05	-0.0062593779659769885
1.01218e-05	-0.006232279583464444
1.01220e-05	-0.006205466639785663
1.01223e-05	-0.006179252703277961
1.01225e-05	-0.006153038766770437
1.01228e-05	-0.006127441519410724
1.01230e-05	-0.006103138423995489
1.01233e-05	-0.006079591480998608
1.01235e-05	-0.006057631360350462
1.01238e-05	-0.006036661308693876
1.01240e-05	-0.006017768964606641
1.01243e-05	-0.0060002508146386815
1.01245e-05	-0.005985616477362461
1.01247e-05	-0.005973043982305614
1.01250e-05	-0.005964798362670809
1.01253e-05	-0.005956552743036003
1.01255e-05	-0.005950792014225749
1.01258e-05	-0.005950245948756165
1.01260e-05	-0.00594969988328658
1.01262e-05	-0.005953040980764802
1.01265e-05	-0.005964539477322091
1.01268e-05	-0.005976037973879379
1.01270e-05	-0.005987536470436668
1.01273e-05	-0.0059990349669938785
1.01275e-05	-0.006010533463551167
1.01278e-05	-0.006026552669025481
1.01280e-05	-0.006052058800376331
1.01283e-05	-0.006077564931727354
1.01285e-05	-0.006103071063078377
1.01288e-05	-0.006128577194429227
1.01290e-05	-0.00615408332578025
1.01293e-05	-0.006182715635461987
1.01295e-05	-0.00621790838127112
1.01298e-05	-0.006253101127080492
1.01300e-05	-0.006288293872889863
1.01303e-05	-0.006323486618698996
1.01305e-05	-0.006358679364508369
1.01308e-05	-0.00639387211031774
1.01310e-05	-0.006431120411912566
1.01313e-05	-0.006468811609628838
1.01315e-05	-0.006506502807345111
1.01318e-05	-0.006544194005061128
1.01320e-05	-0.006581885202777402
1.01323e-05	-0.006619576400493674
1.01325e-05	-0.006656100760910567
1.01328e-05	-0.0066901764569318855
1.01330e-05	-0.006724252152953204
1.01332e-05	-0.006756621327507985
1.01335e-05	-0.006785409284391496
1.01338e-05	-0.006814197241275005
1.01340e-05	-0.006840422460379554
1.01343e-05	-0.006861269650551034
1.01345e-05	-0.006882116840722514
1.01347e-05	-0.006899651878416186
1.01350e-05	-0.006910236204256286
1.01353e-05	-0.0069208205300963855
1.01355e-05	-0.006927982896171288
1.01358e-05	-0.0069279641144993674
1.01360e-05	-0.006927945332827446
1.01363e-05	-0.006922925214485197
1.01365e-05	-0.006907409549723566
1.01368e-05	-0.00689189388496183
1.01370e-05	-0.006876378220200094
1.01373e-05	-0.006860862555438464
1.01375e-05	-0.006845346890676728
1.01378e-05	-0.006815245436077978
1.01380e-05	-0.006782001284117483
1.01383e-05	-0.006748757132156763
1.01385e-05	-0.006715512980196044
1.01388e-05	-0.0066822688282355495
1.01390e-05	-0.006645117458044558
1.01393e-05	-0.006599766601793371
1.01395e-05	-0.0065544157455424915
1.01398e-05	-0.006509064889291305
1.01400e-05	-0.006463714033040118
1.01403e-05	-0.00641341487197435
1.01405e-05	-0.006362049534536296
1.01408e-05	-0.006310684197098243
1.01410e-05	-0.006259318859660537
1.01413e-05	-0.00620753599236869
1.01415e-05	-0.006154876918524138
1.01417e-05	-0.0061023865381290366
1.01420e-05	-0.006050488969872904
1.01423e-05	-0.0059994198544994215
1.01425e-05	-0.005949457373883252
1.01428e-05	-0.005900899481560026
1.01430e-05	-0.005854073524786577
1.01432e-05	-0.005809317723941479
1.01435e-05	-0.005766970163928914
1.01438e-05	-0.005727368584655983
1.01440e-05	-0.005690854692646383
1.01443e-05	-0.005657768958170622
1.01445e-05	-0.005628400825191176
1.01448e-05	-0.005603569119921856
1.01450e-05	-0.005582768728709892
1.01453e-05	-0.005564582672678338
1.01455e-05	-0.005551882925220194
1.01458e-05	-0.0055418622100739615
1.01460e-05	-0.005537463573554038
1.01463e-05	-0.005536463051785449
1.01465e-05	-0.005542593637853257
1.01468e-05	-0.005548724223921106
1.01470e-05	-0.005560167466166169
1.01473e-05	-0.0055827595738467545
1.01475e-05	-0.005605351681527493
1.01478e-05	-0.005627943789208232
1.01480e-05	-0.0056505358968888175
1.01483e-05	-0.005673128004569556
1.01485e-05	-0.005709977468611045
1.01488e-05	-0.005749898864768732
1.01490e-05	-0.00578982026092669
1.01493e-05	-0.005829741657084649
1.01495e-05	-0.0058696630532423365
1.01498e-05	-0.005912519357921118
1.01500e-05	-0.005961534709802701
1.01502e-05	-0.006010550061683952
1.01505e-05	-0.006060674407054915
1.01508e-05	-0.006113126028795972
1.01510e-05	-0.0061655776505366725
1.01513e-05	-0.006218247734677542
1.01515e-05	-0.006271376272709916
1.01517e-05	-0.006324504810741928
1.01520e-05	-0.006376932726182297
1.01523e-05	-0.0064278903512932405
1.01525e-05	-0.006478847976404184
1.01528e-05	-0.006528129186882941
1.01530e-05	-0.006573892360333967
1.01533e-05	-0.006619655533784993
1.01535e-05	-0.00666055778108011
1.01538e-05	-0.006691259140193195
1.01540e-05	-0.00672196049930628
1.01543e-05	-0.006752661858419158
1.01545e-05	-0.006783363217532243
1.01548e-05	-0.006814064576645329
1.01550e-05	-0.006844765935758205
1.01553e-05	-0.00687546729487129
1.01555e-05	-0.006888106038823343
1.01558e-05	-0.006896852958355908
1.01560e-05	-0.006905599877888533
1.01563e-05	-0.006914346797421158
1.01565e-05	-0.006923093716953723
1.01568e-05	-0.006931840636486348
1.01570e-05	-0.006940587556018973
1.01573e-05	-0.006943365613617982
1.01575e-05	-0.006933617726321636
1.01578e-05	-0.006923869839025291
1.01580e-05	-0.006914121951729011
1.01583e-05	-0.006904374064432666
1.01585e-05	-0.00689462617713632
1.01587e-05	-0.006884878289840041
1.01590e-05	-0.006871197478212842
1.01593e-05	-0.006849263235027662
1.01595e-05	-0.006827328991842631
1.01598e-05	-0.006805394748657451
1.01600e-05	-0.0067834605054722715
1.01602e-05	-0.006761526262287241
1.01605e-05	-0.006739592019102061
1.01608e-05	-0.00671624562443058
1.01610e-05	-0.006689935761697693
1.01613e-05	-0.0066636258989649835
1.01615e-05	-0.006637153529461895
1.01618e-05	-0.006610340131656999
1.01620e-05	-0.006583526733852285
1.01623e-05	-0.006557080178549904
1.01625e-05	-0.006531403459947326
1.01628e-05	-0.006505726741344922
1.01630e-05	-0.00648101524482869
1.01633e-05	-0.00645832931345406
1.01635e-05	-0.0064356433820795846
1.01638e-05	-0.006414410042818158
1.01640e-05	-0.006396225038226216
1.01643e-05	-0.006378040033634397
1.01645e-05	-0.0063629224194715886
1.01648e-05	-0.006354241872194441
1.01650e-05	-0.006345561324917351
1.01653e-05	-0.006336880777640203
1.01655e-05	-0.006328200230363054
1.01658e-05	-0.0063195196830859645
1.01660e-05	-0.006310839135808817
1.01663e-05	-0.006302158588531668
1.01665e-05	-0.006304781038083076
1.01668e-05	-0.0063098388647213075
1.01670e-05	-0.006314896691359538
1.01672e-05	-0.006319954517997735
1.01675e-05	-0.006325012344635965
1.01678e-05	-0.006330070171274196
1.01680e-05	-0.006335127997912393
1.01683e-05	-0.00634376815956008
1.01685e-05	-0.0063599260241530495
1.01687e-05	-0.00637608388874591
1.01690e-05	-0.006392241753338879
1.01693e-05	-0.0064083996179318484
1.01695e-05	-0.006424557482524709
1.01698e-05	-0.006440715347117678
1.01700e-05	-0.006456873211710647
1.01703e-05	-0.006474637139379639
1.01705e-05	-0.006495771467942262
1.01708e-05	-0.0065169057965050285
1.01710e-05	-0.006538040125067795
1.01713e-05	-0.006559174453630418
1.01715e-05	-0.006580308782193184
1.01718e-05	-0.006601443110755951
1.01720e-05	-0.006622577439318574
1.01723e-05	-0.006643246320488719
1.01725e-05	-0.0066629384378370324
1.01728e-05	-0.006682630555185212
1.01730e-05	-0.0067023226725335255
1.01733e-05	-0.006720715249189825
1.01735e-05	-0.00673638067697136
1.01738e-05	-0.006752046104753002
1.01740e-05	-0.006767711532534643
1.01743e-05	-0.006783271052890739
1.01745e-05	-0.006798608321402193
1.01748e-05	-0.0068139455899136475
1.01750e-05	-0.006829282858424998
1.01753e-05	-0.006844620126936452
1.01755e-05	-0.006859957395447906
1.01757e-05	-0.006875294663959256
1.01760e-05	-0.00689063193247071
1.01763e-05	-0.006910158479665523
1.01765e-05	-0.0069305876612212915
1.01768e-05	-0.006951016842777198
1.01770e-05	-0.006971446024333105
1.01772e-05	-0.0069918752058888735
1.01775e-05	-0.007012304387444781
1.01778e-05	-0.007032733569000687
1.01780e-05	-0.0070550912076440715
1.01783e-05	-0.007081495806578854
1.01785e-05	-0.007107900405513637
1.01788e-05	-0.0071343050044484204
1.01790e-05	-0.0071607096033830244
1.01793e-05	-0.007187114202317807
1.01795e-05	-0.00721351880125259
1.01798e-05	-0.007239923400187194
1.01800e-05	-0.0072663279991219765
1.01803e-05	-0.007293199245631579
1.01805e-05	-0.007321049774603406
1.01808e-05	-0.007348900303575423
1.01810e-05	-0.007376750832547439
1.01813e-05	-0.007404601361519267
1.01815e-05	-0.007432451890491283
1.01818e-05	-0.007460302419463299
1.01820e-05	-0.007488152948435127
1.01823e-05	-0.007516003477407144
1.01825e-05	-0.007541561269961331
1.01828e-05	-0.007562307644463968
1.01830e-05	-0.007583054018966746
1.01833e-05	-0.007603800393469524
1.01835e-05	-0.007624546767972162
1.01838e-05	-0.00764529314247494
1.01840e-05	-0.007666039516977718
1.01842e-05	-0.0076867858914803555
1.01845e-05	-0.007703513698733325
1.01848e-05	-0.007711808348621162
1.01850e-05	-0.007720102998508943
1.01853e-05	-0.0077283976483967795
1.01855e-05	-0.0077366922982846165
1.01857e-05	-0.007744986948172397
1.01860e-05	-0.007753281598060235
1.01863e-05	-0.007761576247948072
1.01865e-05	-0.007765511885415129
1.01868e-05	-0.007760299924890805
1.01870e-05	-0.007755087964366481
1.01873e-05	-0.007749876003842157
1.01875e-05	-0.007744664043317868
1.01878e-05	-0.007739452082793544
1.01880e-05	-0.00773424012226922
1.01883e-05	-0.007729028161744931
1.01885e-05	-0.007723816201220607
1.01888e-05	-0.007718604240696283
1.01890e-05	-0.00771032752972812
1.01893e-05	-0.007695619292005584
1.01895e-05	-0.007680911054283048
1.01898e-05	-0.007666202816560611
1.01900e-05	-0.0076514945788380756
1.01903e-05	-0.00763678634111554
1.01905e-05	-0.007622078103393103
1.01908e-05	-0.0076073698656705675
1.01910e-05	-0.007592661627948031
1.01913e-05	-0.007577953390225595
1.01915e-05	-0.0075626509983961815
1.01918e-05	-0.00754610174549123
1.01920e-05	-0.00752955249258639
1.01923e-05	-0.007513003239681439
1.01925e-05	-0.007496916973273368
1.01927e-05	-0.007481802306379392
1.01930e-05	-0.007466687639485314
1.01933e-05	-0.007451572972591236
1.01935e-05	-0.007437164037934301
1.01938e-05	-0.00742423611644542
1.01940e-05	-0.007411385290492655
1.01942e-05	-0.007398696253244249
1.01945e-05	-0.007384195546038911
1.01948e-05	-0.007365892961971924
1.01950e-05	-0.007344960588553821
1.01953e-05	-0.00731850947523045
1.01955e-05	-0.00729205836190708
1.01958e-05	-0.007262942367989425
1.01960e-05	-0.007228233993499319
1.01963e-05	-0.007193525619008979
1.01965e-05	-0.007154068062644683
