Time(s)	Current(A)
1.13000e-05	0.0006808446663307385
1.13003e-05	0.0007601073840104664
1.13005e-05	0.00084038415941714
1.13008e-05	0.0009248205127406133
1.13010e-05	0.00101024396586951
1.13013e-05	0.0010956674189984068
1.13015e-05	0.0011810908721267244
1.13018e-05	0.0012672054105057195
1.13020e-05	0.00135348394872535
1.13023e-05	0.001439762486944396
1.13025e-05	0.0015260410251640268
1.13028e-05	0.0016078621315380622
1.13030e-05	0.0016886254550804874
1.13033e-05	0.0017693887786234598
1.13035e-05	0.0018422582772097066
1.13037e-05	0.0019132545104713471
1.13040e-05	0.001984250743733469
1.13043e-05	0.002045625107646939
1.13045e-05	0.0021047161280220283
1.13048e-05	0.0021545950305867463
1.13050e-05	0.0022022878268021613
1.13052e-05	0.0022404758927421393
1.13055e-05	0.0022764084131465974
1.13058e-05	0.002302453737144796
1.13060e-05	0.0023261527534550706
1.13063e-05	0.0023395658300715146
1.13065e-05	0.0023505379741537405
1.13068e-05	0.002351209689050338
1.13070e-05	0.0023494370329448853
1.13073e-05	0.0023379249920670833
1.13075e-05	0.0023241017203379844
1.13078e-05	0.0022988361094738023
1.13080e-05	0.002270855143601133
1.13083e-05	0.0022428741777284645
1.13085e-05	0.002202318026544315
1.13088e-05	0.0021587776872482524
1.13090e-05	0.0021152373479521895
1.13093e-05	0.002061318894468304
1.13095e-05	0.002004937634733872
1.13098e-05	0.00194855637499944
1.13100e-05	0.0018841905898537882
1.13103e-05	0.0018179300154682644
1.13105e-05	0.0017516694410827406
1.13108e-05	0.0016793836425671273
1.13110e-05	0.001605668012062307
1.13113e-05	0.001531952381557487
1.13115e-05	0.0014582367510531666
1.13118e-05	0.0013841782756831092
1.13120e-05	0.0013093502579731254
1.13122e-05	0.0012345222402636487
1.13125e-05	0.001159694222553665
1.13128e-05	0.0010848662048436814
1.13130e-05	0.0010137815123209182
1.13133e-05	0.0009435851396312389
1.13135e-05	0.0008779874164474562
1.13137e-05	0.0008134809881316578
1.13140e-05	0.0007534355826710217
1.13143e-05	0.0006979625610230819
1.13145e-05	0.0006468991315108483
1.13148e-05	0.0005998910670599893
1.13150e-05	0.0005536440036225125
1.13153e-05	0.0005087967050679892
1.13155e-05	0.00046533122284492733
1.13158e-05	0.0004242419612516315
1.13160e-05	0.00038365748458696916
1.13163e-05	0.00034575271711821453
1.13165e-05	0.00031042404582237574
1.13168e-05	0.00027690661009433957
1.13170e-05	0.0002442176300127485
1.13173e-05	0.00021191375207191005
1.13175e-05	0.00018012177510040489
1.13178e-05	0.00014908146484479971
1.13180e-05	0.00011903524694383912
1.13183e-05	9.022547567281378e-05
1.13185e-05	6.276006956109697e-05
1.13188e-05	3.6307216250985966e-05
1.13190e-05	1.0279607785784796e-05
1.13193e-05	-1.557215363784523e-05
1.13195e-05	-4.11403071001002e-05
1.13198e-05	-6.624634377151579e-05
1.13200e-05	-9.071011293397678e-05
1.13203e-05	-0.0001143515117120602
1.13205e-05	-0.0001367947698378881
1.13207e-05	-0.00015899270152252415
1.13210e-05	-0.00018054047312706577
1.13213e-05	-0.00020193395674813407
1.13215e-05	-0.00022268984980534953
1.13218e-05	-0.00024329443772209999
1.13220e-05	-0.00026280728594684963
1.13222e-05	-0.0002820610559526084
1.13225e-05	-0.00029969486078745865
1.13228e-05	-0.0003169442354378774
1.13230e-05	-0.00033419361008829617
1.13233e-05	-0.00035021017831816237
1.13235e-05	-0.00036593419211051326
1.13238e-05	-0.0003799950349176661
1.13240e-05	-0.0003936611944685433
1.13243e-05	-0.00040732735401951306
1.13245e-05	-0.00041863747359108906
1.13248e-05	-0.00042938848676939454
1.13250e-05	-0.0004401394999477729
1.13253e-05	-0.0004491427181772105
1.13255e-05	-0.000457731171233443
1.13258e-05	-0.00046631962428973376
1.13260e-05	-0.00047293782792660096
1.13263e-05	-0.0004790884762348563
1.13265e-05	-0.0004852391245431533
1.13268e-05	-0.0004895389284486504
1.13270e-05	-0.0004933995127536026
1.13273e-05	-0.0004972600970585811
1.13275e-05	-0.0004996593439812633
1.13278e-05	-0.0005017118043127239
1.13280e-05	-0.0005037642646441983
1.13283e-05	-0.000503353405520372
1.13285e-05	-0.0005023579817591806
1.13288e-05	-0.0005013625579979824
1.13290e-05	-0.0005003671342367844
1.13292e-05	-0.0004993717104755929
1.13295e-05	-0.0004983762867143949
1.13298e-05	-0.0004973808629531967
1.13300e-05	-0.0004963854391920054
1.13303e-05	-0.0004932662287544609
1.13305e-05	-0.0004896430274172805
1.13307e-05	-0.0004860198260801247
1.13310e-05	-0.0004823966247429443
1.13313e-05	-0.00047877342340576395
1.13315e-05	-0.00047515022206858355
1.13318e-05	-0.0004715270207314277
1.13320e-05	-0.00046790381939424737
1.13323e-05	-0.0004637914918601214
1.13325e-05	-0.0004595630909205402
1.13328e-05	-0.00045533468998093036
1.13330e-05	-0.0004511062890413205
1.13333e-05	-0.0004472488461421052
1.13335e-05	-0.00044347943443667087
1.13338e-05	-0.00043971002273123655
1.13340e-05	-0.00043594061102582776
1.13343e-05	-0.000432412988794551
1.13345e-05	-0.0004289427450636582
1.13348e-05	-0.000425472501332789
1.13350e-05	-0.00041997574379235453
1.13353e-05	-0.00041213135726428623
1.13355e-05	-0.000402088473201385
1.13358e-05	-0.00038999511471663167
1.13360e-05	-0.00037600180123927647
1.13363e-05	-0.00036025903425864815
1.13365e-05	-0.00034279751263352866
1.13368e-05	-0.00032327046495488505
1.13370e-05	-0.0003011478510587711
1.13373e-05	-0.0002762490179709246
1.13375e-05	-0.00024873308332729315
1.13377e-05	-0.00021882526901090876
1.13380e-05	-0.00018675237279923144
1.13383e-05	-0.0001527411537993958
1.13385e-05	-0.00011694330156456666
1.13388e-05	-7.927411055697636e-05
1.13390e-05	-3.9534050345273806e-05
1.13392e-05	2.2575264250415474e-06
1.13395e-05	4.5868451889877936e-05
1.13398e-05	9.102514101215842e-05
1.13400e-05	0.00013745305274923114
1.13403e-05	0.0001851718056359919
1.13405e-05	0.00023314142293479615
1.13408e-05	0.0002824590216483502
1.13410e-05	0.0003320965067107173
1.13413e-05	0.0003817339917734208
1.13415e-05	0.0004316061195722884
1.13418e-05	0.0004815339298953747
1.13420e-05	0.0005314617402187993
1.13423e-05	0.000581389550542224
1.13425e-05	0.0006284284596324547
1.13428e-05	0.0006747818102587594
1.13430e-05	0.0007211351608850642
1.13433e-05	0.0007674885115110548
1.13435e-05	0.0008098070796741824
1.13438e-05	0.0008511681629507522
1.13440e-05	0.0008885162450454061
1.13443e-05	0.0009249120111192439
1.13445e-05	0.000956173251710917
1.13448e-05	0.0009862160299456421
1.13450e-05	0.001016258808180571
1.13453e-05	0.001042728687866116
1.13455e-05	0.0010683506912672616
1.13458e-05	0.0010939726946685808
1.13460e-05	0.0011153511273615901
1.13462e-05	0.0011357225281126255
1.13465e-05	0.001156093928863799
1.13468e-05	0.0011727209877605957
1.13470e-05	0.0011884594855591307
1.13473e-05	0.0012041979833577721
1.13475e-05	0.0012147825082883344
1.13477e-05	0.0012241439558477406
1.13480e-05	0.0012335054034072104
1.13483e-05	0.00124286685096668
1.13485e-05	0.0012522282985261497
1.13488e-05	0.001261589746085556
1.13490e-05	0.0012709511936450256
1.13493e-05	0.0012803126412044953
1.13495e-05	0.0012896740887639016
1.13498e-05	0.001293531547095336
1.13500e-05	0.001296082866483388
1.13503e-05	0.0012986341858714223
1.13505e-05	0.0013011855052594743
1.13508e-05	0.001303736824647526
1.13510e-05	0.0013062881440355605
1.13513e-05	0.0013088394634236124
1.13515e-05	0.0013113907828116642
1.13518e-05	0.0013139421021996988
1.13520e-05	0.0013142846679203772
1.13523e-05	0.0013141030794208803
1.13525e-05	0.001313921490921385
1.13528e-05	0.001313739902421888
1.13530e-05	0.0013135583139223912
1.13533e-05	0.0013133767254228958
1.13535e-05	0.0013131853361307844
1.13538e-05	0.0013129916210352637
1.13540e-05	0.0013127979059397443
1.13543e-05	0.0013126041908442237
1.13545e-05	0.001312410475748703
1.13548e-05	0.0013122167606531836
1.13550e-05	0.0013167786096719583
1.13553e-05	0.0013224689906028845
1.13555e-05	0.0013281593715337723
1.13558e-05	0.0013394413477109115
1.13560e-05	0.0013520502524128795
1.13562e-05	0.001364659157114762
1.13565e-05	0.0013827044752329771
1.13568e-05	0.0014020398960352127
1.13570e-05	0.0014213753168374483
1.13573e-05	0.0014476815004223834
1.13575e-05	0.001475641899588133
1.13578e-05	0.0015036022987538825
1.13580e-05	0.0015373503403803572
1.13583e-05	0.0015724718340427543
1.13585e-05	0.0016075933277051515
1.13588e-05	0.0016479406353517273
1.13590e-05	0.001689528068819036
1.13593e-05	0.0017311155022863445
1.13595e-05	0.0017789660053154507
1.13598e-05	0.0018283027828856066
1.13600e-05	0.0018776395604557625
1.13603e-05	0.0019269763380255843
1.13605e-05	0.00197631311559574
1.13608e-05	0.0020256498931658963
1.13610e-05	0.0020759193948286284
1.13613e-05	0.0021282824692848983
1.13615e-05	0.002180645543741168
1.13618e-05	0.0022330086181970832
1.13620e-05	0.0022853716926533535
1.13623e-05	0.0023377347671096234
1.13625e-05	0.0023900978415655385
1.13628e-05	0.002435197134509639
1.13630e-05	0.0024785726762761237
1.13633e-05	0.0025219482180423147
1.13635e-05	0.002565323759808799
1.13638e-05	0.0026086993015752838
1.13640e-05	0.0026520748433414743
1.13643e-05	0.002695450385107959
1.13645e-05	0.0027315968540516924
1.13647e-05	0.002751517098864541
1.13650e-05	0.0027714373436775242
1.13653e-05	0.0027913575884905076
1.13655e-05	0.0028112778333034914
1.13658e-05	0.0028311980781163394
1.13660e-05	0.002851118322929323
1.13663e-05	0.0028710385677423065
1.13665e-05	0.002874374215511278
1.13668e-05	0.0028737742109425793
1.13670e-05	0.0028731742063738803
1.13673e-05	0.0028633690464822553
1.13675e-05	0.002851379432487272
1.13678e-05	0.002839389818492289
1.13680e-05	0.0028135084951856765
1.13683e-05	0.0027843305624960894
1.13685e-05	0.002755152629806502
1.13688e-05	0.0027259746971171127
1.13690e-05	0.002696796764427525
1.13693e-05	0.002667618831737938
1.13695e-05	0.0026384408990485484
1.13698e-05	0.0026043186138206163
1.13700e-05	0.0025590983393424193
1.13703e-05	0.002513878064864529
1.13705e-05	0.0024686577903863314
1.13708e-05	0.0024234375159081344
1.13710e-05	0.002378217241430244
1.13713e-05	0.0023329969669520466
1.13715e-05	0.0022877766924738496
1.13718e-05	0.0022403220442729094
1.13720e-05	0.0021923371620150307
1.13723e-05	0.002144352279757152
1.13725e-05	0.0020963673974995984
1.13728e-05	0.0020483825152417196
1.13730e-05	0.002000397632983841
1.13732e-05	0.001959717336345155
1.13735e-05	0.0019207704740126323
1.13738e-05	0.0018818236116801095
1.13740e-05	0.0018428767493475866
1.13743e-05	0.0018039298870153276
1.13745e-05	0.0017649830246828048
1.13748e-05	0.001734346607235264
1.13750e-05	0.0017056823222288357
1.13753e-05	0.0016770180372222131
1.13755e-05	0.0016559877908246285
1.13758e-05	0.001636769160460387
1.13760e-05	0.0016175505300960154
1.13763e-05	0.0015983318997316437
1.13765e-05	0.0015791132693674023
1.13768e-05	0.0015598946390030306
1.13770e-05	0.001540676008638659
1.13773e-05	0.0015214573782744176
1.13775e-05	0.0015022387479100459
1.13778e-05	0.001492055674725202
1.13780e-05	0.001484016808702034
1.13783e-05	0.0014759779426788114
1.13785e-05	0.001467939076655589
1.13788e-05	0.0014599002106324207
1.13790e-05	0.001451861344609198
1.13793e-05	0.0014438224785859755
1.13795e-05	0.0014357836125628073
1.13798e-05	0.0014277447465395848
1.13800e-05	0.001425166517214051
1.13803e-05	0.0014238841389448678
1.13805e-05	0.0014226017606756762
1.13808e-05	0.0014213193824064844
1.13810e-05	0.0014200370041373015
1.13813e-05	0.0014187546258681097
1.13815e-05	0.001417472247598918
1.13817e-05	0.001416189869329735
1.13820e-05	0.0014149074910605431
1.13823e-05	0.0014136251127913515
1.13825e-05	0.0014123427345221684
1.13828e-05	0.001413254342441937
1.13830e-05	0.0014146866001463756
1.13833e-05	0.001416118857850814
1.13835e-05	0.0014175511155552429
1.13838e-05	0.0014189833732596814
1.13840e-05	0.00142041563096412
1.13843e-05	0.0014218478886685489
1.13845e-05	0.0014232801463729874
1.13848e-05	0.0014247124040774259
1.13850e-05	0.0014261446617818549
1.13853e-05	0.0014275769194862934
1.13855e-05	0.0014382806553159256
1.13858e-05	0.0014511845841612494
1.13860e-05	0.0014640885130066607
1.13863e-05	0.001476992441852072
1.13865e-05	0.0014898963706973958
1.13868e-05	0.001502800299542807
1.13870e-05	0.0015157042283882184
1.13873e-05	0.001528608157233542
1.13875e-05	0.0015415120860789533
1.13878e-05	0.0015544160149243646
1.13880e-05	0.0015719050970191323
1.13883e-05	0.0015996859172355837
1.13885e-05	0.0016274667374520351
1.13888e-05	0.0016552475576682981
1.13890e-05	0.0016830283778847496
1.13893e-05	0.001710809198101201
1.13895e-05	0.0017385900183174642
1.13898e-05	0.0017663708385339154
1.13900e-05	0.0017941516587503669
1.13902e-05	0.0018219324789666299
1.13905e-05	0.0018497132991830813
1.13908e-05	0.0018820516290952787
1.13910e-05	0.0019154714910854787
1.13913e-05	0.0019488913530759048
1.13915e-05	0.001982311215066331
1.13918e-05	0.0020157310770567574
1.13920e-05	0.0020491509390469574
1.13923e-05	0.0020825708010373837
1.13925e-05	0.0021127023682963003
1.13928e-05	0.0021420535979424777
1.13930e-05	0.002171404827588854
1.13933e-05	0.00220075605723523
1.13935e-05	0.0022301072868814074
1.13938e-05	0.0022594585165277834
1.13940e-05	0.00228880974617416
1.13943e-05	0.0023112639956468016
1.13945e-05	0.002332081538716323
1.13948e-05	0.002352899081785845
1.13950e-05	0.00236431049840176
1.13953e-05	0.0023734897689176204
1.13955e-05	0.0023826690394334804
1.13958e-05	0.0023811868666156148
1.13960e-05	0.002377174651353939
1.13963e-05	0.0023731624360922624
1.13965e-05	0.002358387100154011
1.13968e-05	0.002341057592957029
1.13970e-05	0.002323728085760047
1.13973e-05	0.002294577536810289
1.13975e-05	0.002262621763799439
1.13978e-05	0.002230665990788589
1.13980e-05	0.0021883877407372497
1.13983e-05	0.002143659887548338
1.13985e-05	0.0020989320343594254
1.13987e-05	0.0020449722422443287
1.13990e-05	0.0019888216400675432
1.13993e-05	0.0019326710378907575
1.13995e-05	0.0018687019749389071
1.13998e-05	0.0018028775311540542
1.14000e-05	0.0017370530873692014
1.14003e-05	0.0016651450746866087
1.14005e-05	0.0015917933843483884
1.14008e-05	0.0015184416940096706
1.14010e-05	0.001445090003670953
1.14013e-05	0.00137077498456487
1.14015e-05	0.0012942976980555283
1.14018e-05	0.0012178204115461868
1.14020e-05	0.0011413431250373632
1.14023e-05	0.0010648658385280217
1.14025e-05	0.0009913026543548874
1.14028e-05	0.000918431009063735
1.14030e-05	0.0008455593637720887
1.14033e-05	0.000777171338040081
1.14035e-05	0.0007098473096901243
1.14038e-05	0.0006463636082349023
1.14040e-05	0.0005868887981333063
1.14043e-05	0.0005316495904868687
1.14045e-05	0.00048111645992309556
1.14048e-05	0.00043562548115524545
1.14050e-05	0.0003953298324463718
1.14053e-05	0.0003603127752045664
1.14055e-05	0.00033067003599066203
1.14058e-05	0.0003065032090846713
1.14060e-05	0.0002879139876575975
1.14063e-05	0.00027500407843315973
1.14065e-05	0.00026785748730659333
1.14068e-05	0.0002664741130788229
1.14070e-05	0.00027073920564259327
1.14072e-05	0.00028049425550407683
1.14075e-05	0.00029558855325864116
1.14078e-05	0.00031587501411817984
1.14080e-05	0.0003412067634080882
1.14083e-05	0.00037143682559071965
1.14085e-05	0.0004064071654461587
1.14088e-05	0.0004459070752222652
1.14090e-05	0.000489654035016434
1.14093e-05	0.0005373381063867354
1.14095e-05	0.0005886543580068563
1.14098e-05	0.0006444997362196413
1.14100e-05	0.0007012572405729411
1.14103e-05	0.0007623209936613515
1.14105e-05	0.0008244066526712666
1.14108e-05	0.00089086400096232
1.14110e-05	0.0009583587847197814
1.14113e-05	0.0010258535684767856
1.14115e-05	0.001093348352234247
1.14118e-05	0.001161120248791189
1.14120e-05	0.0012295141468837635
1.14123e-05	0.0012979080449768018
1.14125e-05	0.0013663019430698398
1.14128e-05	0.0014346958411624146
1.14130e-05	0.0014986103118218447
1.14133e-05	0.0015614617799229885
1.14135e-05	0.0016243132480237064
1.14138e-05	0.0016797030669263868
1.14140e-05	0.0017333221791249382
1.14143e-05	0.0017869412913231264
1.14145e-05	0.00183243764460202
1.14148e-05	0.0018760064047586514
1.14150e-05	0.0019195751649149877
1.14153e-05	0.0019631439250716192
1.14155e-05	0.0020067126852282503
1.14157e-05	0.0020472319154350898
1.14160e-05	0.0020870274687467953
1.14163e-05	0.002126823022058501
1.14165e-05	0.002166618575369937
1.14168e-05	0.0022064141286816425
1.14170e-05	0.0022465466222663694
1.14173e-05	0.00228675907436758
1.14175e-05	0.0023269715264685182
1.14178e-05	0.002367183978569729
1.14180e-05	0.00240739643067094
1.14183e-05	0.002447608882771878
1.14185e-05	0.0024878213348730888
1.14188e-05	0.0025280337869742994
1.14190e-05	0.0025682462390752376
1.14193e-05	0.0026084586911764487
1.14195e-05	0.0026486711432776593
1.14198e-05	0.0026888835953785975
1.14200e-05	0.0027283199501553206
1.14203e-05	0.0027675721310718884
1.14205e-05	0.00280682431198819
1.14208e-05	0.0028460764929047577
1.14210e-05	0.002885328673821325
1.14213e-05	0.002924580854737627
1.14215e-05	0.002963833035654195
1.14218e-05	0.003003085216570762
1.14220e-05	0.003042337397487064
1.14223e-05	0.0030815895784036314
1.14225e-05	0.0031208417593201992
1.14228e-05	0.0031600939402365007
1.14230e-05	0.0031904701156537
1.14233e-05	0.00321873994674489
1.14235e-05	0.0032470097778358876
1.14238e-05	0.003275279608927077
1.14240e-05	0.003303549440018267
1.14242e-05	0.0033318192711092646
1.14245e-05	0.003360089102200454
1.14248e-05	0.003388358933291644
1.14250e-05	0.003397618457063364
1.14253e-05	0.0034023666887947274
1.14255e-05	0.0034071149205260904
1.14258e-05	0.003411863152257454
1.14260e-05	0.0034166113839887847
1.14263e-05	0.003421359615720148
1.14265e-05	0.003426107847451511
1.14268e-05	0.0034308560791828425
1.14270e-05	0.0034118626670428596
1.14273e-05	0.0033872351803333543
1.14275e-05	0.0033626076936240155
1.14278e-05	0.00333798020691451
1.14280e-05	0.003313352720205005
1.14283e-05	0.0032887252334956665
1.14285e-05	0.003264097746786161
1.14288e-05	0.003239470260076656
1.14290e-05	0.003196930539011695
1.14293e-05	0.0031501401070595514
1.14295e-05	0.0031033496751074075
1.14298e-05	0.003056559243155581
1.14300e-05	0.0030097688112034372
1.14303e-05	0.002962978379251294
1.14305e-05	0.0029161879472994674
1.14308e-05	0.0028693975153473235
1.14310e-05	0.002815977060702275
1.14313e-05	0.0027609832507137825
1.14315e-05	0.002705989440724917
1.14318e-05	0.0026509956307360512
1.14320e-05	0.0025960018207475586
1.14323e-05	0.002541008010758693
1.14325e-05	0.002487883391507285
1.14327e-05	0.0024389543183045478
1.14330e-05	0.0023900252451014795
1.14333e-05	0.002341096171898411
1.14335e-05	0.002292167098695674
1.14338e-05	0.0022432380254926053
1.14340e-05	0.002194308952289537
1.14343e-05	0.00215563387964453
1.14345e-05	0.002119392160145545
1.14348e-05	0.0020831504406463148
1.14350e-05	0.002054993481216209
1.14353e-05	0.002028755097491101
1.14355e-05	0.0020025167137658153
1.14358e-05	0.0019846786285877497
1.14360e-05	0.0019688339988208165
1.14363e-05	0.001952989369053776
1.14365e-05	0.0019459721642163404
1.14368e-05	0.0019410497751635432
1.14370e-05	0.0019361273861107128
1.14373e-05	0.0019392427760475217
1.14375e-05	0.0019442655927179367
1.14378e-05	0.0019492884093883856
1.14380e-05	0.001961826756093254
1.14383e-05	0.0019761485958405185
1.14385e-05	0.0019904704355878803
1.14388e-05	0.002014867449812658
1.14390e-05	0.0020416553803798265
1.14393e-05	0.002068443310947176
1.14395e-05	0.0020952312415145257
1.14398e-05	0.002122019172081694
1.14400e-05	0.0021488071026490438
1.14403e-05	0.0021755950332163934
1.14405e-05	0.0022103469153624184
1.14408e-05	0.002246988704430487
1.14410e-05	0.002283630493498556
1.14412e-05	0.0023202722825663765
1.14415e-05	0.0023569140716344452
1.14418e-05	0.002393555860702514
1.14420e-05	0.0024301976497703346
1.14423e-05	0.0024628384444953257
1.14425e-05	0.0024945297725103423
1.14428e-05	0.002526221100525359
1.14430e-05	0.0025579124285401602
1.14433e-05	0.002589603756555177
1.14435e-05	0.0026212950845701933
1.14438e-05	0.0026529864125849952
1.14440e-05	0.0026846777406000113
1.14443e-05	0.002716369068615028
1.14445e-05	0.0027480603966298298
1.14448e-05	0.0027797517246448463
1.14450e-05	0.0028063345530072617
1.14453e-05	0.0028214509509464575
1.14455e-05	0.002836567348885756
1.14458e-05	0.0028516837468250547
1.14460e-05	0.0028668001447642506
1.14463e-05	0.002881916542703549
1.14465e-05	0.0028970329406428474
1.14468e-05	0.0029121493385820436
