Time(s)	Current(A)
8.25000e-06	-0.00033648895024665867
8.25025e-06	-0.0002559007129142732
8.25050e-06	-0.00017886953828724267
8.25075e-06	-0.00010598867860729198
8.25100e-06	-3.78513379065918e-05
8.25125e-06	2.506394250742619e-05
8.25150e-06	8.288865938380276e-05
8.25175e-06	0.00013665956655374605
8.25200e-06	0.00018742211493171044
8.25225e-06	0.0002353645744983577
8.25250e-06	0.00028019350594282944
8.25275e-06	0.00032158974435420485
8.25300e-06	0.0003592341767664261
8.25325e-06	0.00039287961138998335
8.25350e-06	0.0004226609289017396
8.25375e-06	0.0004492800438729722
8.25400e-06	0.00047344423293054535
8.25425e-06	0.0004953238304449388
8.25450e-06	0.0005147874297728119
8.25475e-06	0.0005316875218189617
8.25500e-06	0.000545876642915526
8.25525e-06	0.0005567554322392834
8.25550e-06	0.0005652261603013766
8.25575e-06	0.0005721574178153365
8.25600e-06	0.0005768412136660764
8.25625e-06	0.0005802665333393334
8.25650e-06	0.0005818546129520408
8.25675e-06	0.000582122551433161
8.25700e-06	0.0005804632256434952
8.25725e-06	0.0005773190743302475
8.25750e-06	0.0005720072372208449
8.25775e-06	0.0005666954001114062
8.25800e-06	0.0005604501805502288
8.25825e-06	0.0005528423228535683
8.25850e-06	0.0005452344651568563
8.25875e-06	0.0005369474411084974
8.25900e-06	0.0005276689071283099
8.25925e-06	0.0005183903731480595
8.25950e-06	0.000508893594290953
8.25975e-06	0.0004990782013528874
8.26000e-06	0.0004892628084147552
8.26025e-06	0.00047989446273110243
8.26050e-06	0.00047117875802683704
8.26075e-06	0.00046246305332251267
8.26100e-06	0.00045447434514140576
8.26125e-06	0.0004475469738059264
8.26150e-06	0.0004406196024704001
8.26175e-06	0.0004346972996872356
8.26200e-06	0.0004302422890477622
8.26225e-06	0.0004257872784082586
8.26250e-06	0.0004224295182497782
8.26275e-06	0.0004206736259506665
8.26300e-06	0.0004189177336515429
8.26325e-06	0.0004182915294292334
8.26350e-06	0.0004193145484723366
8.26375e-06	0.00042033756751544676
8.26400e-06	0.00042249876559508764
8.26425e-06	0.0004263215828293928
8.26450e-06	0.0004301444000637239
8.26475e-06	0.00043499519527215183
8.26500e-06	0.000441346727919538
8.26525e-06	0.0004476982605668812
8.26550e-06	0.0004549642021372582
8.26575e-06	0.00046356508252915396
8.26600e-06	0.0004721659629209914
8.26625e-06	0.0004818302916500297
8.26650e-06	0.0004930471407386985
8.26675e-06	0.0005042639898272913
8.26700e-06	0.0005154808389159602
8.26725e-06	0.000526697688004629
8.26750e-06	0.0005379145370932218
8.26775e-06	0.0005491313861818906
8.26800e-06	0.0005616631686888921
8.26825e-06	0.0005743305437324139
8.26850e-06	0.0005869979187760215
8.26875e-06	0.0005996652938196292
8.26900e-06	0.000612332668863151
8.26925e-06	0.0006250000439067588
8.26950e-06	0.0006374493236338395
8.26975e-06	0.0006495802076217503
8.27000e-06	0.0006613931479583521
8.27025e-06	0.0006727419247104813
8.27050e-06	0.0006836357981970947
8.27075e-06	0.000693865561771993
8.27100e-06	0.0007034985406291612
8.27125e-06	0.0007122602778919321
8.27150e-06	0.0007202096397246
8.27175e-06	0.0007269730206767794
8.27200e-06	0.000732744982501512
8.27225e-06	0.000737069578876739
8.27250e-06	0.0007401376867402256
8.27275e-06	0.0007413714563209447
8.27300e-06	0.0007426052259016722
8.27325e-06	0.0007422982234870093
8.27350e-06	0.0007397418594350059
8.27375e-06	0.0007371854953830199
8.27400e-06	0.0007330340929140328
8.27425e-06	0.0007265541056602875
8.27450e-06	0.000720074118406586
8.27475e-06	0.0007121664431235376
8.27500e-06	0.0007021744966485781
8.27525e-06	0.0006921825501736864
8.27550e-06	0.000680920051665245
8.27575e-06	0.0006678026836426442
8.27600e-06	0.0006546853156201323
8.27625e-06	0.0006401921762136636
8.27650e-06	0.0006236905583417615
8.27675e-06	0.000607188940469971
8.27700e-06	0.0005906873225980688
8.27725e-06	0.0005741857047261666
8.27750e-06	0.0005576840868543763
8.27775e-06	0.000539197287181776
8.27800e-06	0.0005205057806909873
8.27825e-06	0.0005018142742003254
8.27850e-06	0.0004831227677095367
8.27875e-06	0.000464431261218748
8.27900e-06	0.0004458384155712833
8.27925e-06	0.0004273896041588048
8.27950e-06	0.0004089407927463263
8.27975e-06	0.0003910554489927747
8.28000e-06	0.00037399270750579816
8.28025e-06	0.00035692996601882165
8.28050e-06	0.0003406518594089865
8.28075e-06	0.00032551923545151644
8.28100e-06	0.0003112270567827845
8.28125e-06	0.0002981618379738123
8.28150e-06	0.0002856190971394642
8.28175e-06	0.00027383911803528804
8.28200e-06	0.0002620591389311119
8.28225e-06	0.0002503495715231441
8.28250e-06	0.00023874279762939608
8.28275e-06	0.0002271360237356481
8.28300e-06	0.0002155292498419787
8.28325e-06	0.0002045061942054465
8.28350e-06	0.00019354333008748354
8.28375e-06	0.00018258046596959484
8.28400e-06	0.00017136464419328289
8.28425e-06	0.00015977953140280924
8.28450e-06	0.0001481944186124141
8.28475e-06	0.00013660930582194046
8.28500e-06	0.00012502419303146684
8.28525e-06	0.00011314831769276928
8.28550e-06	0.00010124245967122933
8.28575e-06	8.933660164968938e-05
8.28600e-06	7.743074362823012e-05
8.28625e-06	6.52979934979133e-05
8.28650e-06	5.283400525640656e-05
8.28675e-06	4.037001701498428e-05
8.28700e-06	2.7910875926368475e-05
8.28725e-06	1.550649627480339e-05
8.28750e-06	3.2028500469761976e-06
8.28775e-06	-9.061504800609645e-06
8.28800e-06	-2.1341332905350725e-05
8.28825e-06	-3.360738793715022e-05
8.28850e-06	-4.574166972823684e-05
8.28875e-06	-5.773319548105598e-05
8.28900e-06	-6.949288830735128e-05
8.28925e-06	-8.091412995933894e-05
8.28950e-06	-9.205688252750211e-05
8.28975e-06	-0.00010279307094216881
8.29000e-06	-0.00011324013685454273
8.29025e-06	-0.000123265114964411
8.29050e-06	-0.0001328918752470375
8.29075e-06	-0.00014193728026931052
8.29100e-06	-0.0001505037111612557
8.29125e-06	-0.00015837089126329482
8.29150e-06	-0.0001662660081213754
8.29175e-06	-0.00017481505710643898
8.29200e-06	-0.000185053083086147
8.29225e-06	-0.00019718873106191722
8.29250e-06	-0.00021107369493450584
8.29275e-06	-0.00022654122111213614
8.29300e-06	-0.0002434245596726109
8.29325e-06	-0.0002616068611501301
8.29350e-06	-0.00028122779716952093
8.29375e-06	-0.00030278137505717186
8.29400e-06	-0.00032669958660448846
8.29425e-06	-0.0003529927113207967
8.29450e-06	-0.00038181402918089263
8.29475e-06	-0.00041237414255410515
8.29500e-06	-0.00044423330769104906
8.29525e-06	-0.00047798894888860603
8.29550e-06	-0.0005130445824417835
8.29575e-06	-0.0005499980652186638
8.29600e-06	-0.0005886609481624392
8.29625e-06	-0.000629819371766262
8.29650e-06	-0.0006709777953700848
8.29675e-06	-0.0007134119610218366
8.29700e-06	-0.0007577085730535944
8.29725e-06	-0.0008020051850853523
8.29750e-06	-0.0008469937807550307
8.29775e-06	-0.0008929925982199883
8.29800e-06	-0.000938991415684946
8.29825e-06	-0.0009851720335494172
8.29850e-06	-0.0010316180604731731
8.29875e-06	-0.001078064087396929
8.29900e-06	-0.0011237081859658646
8.29925e-06	-0.0011681815552609615
8.29950e-06	-0.00121265492455636
8.29975e-06	-0.0012556348156746238
8.30000e-06	-0.0012964343890486387
8.30025e-06	-0.00133723396242293
8.30050e-06	-0.0013761365615355457
8.30075e-06	-0.0014122697819545886
8.30100e-06	-0.0014463081213122936
8.30125e-06	-0.0014772881593032511
8.30150e-06	-0.0015054405065771316
8.30175e-06	-0.0015294647290889298
8.30200e-06	-0.001550063636141223
8.30225e-06	-0.0015656619504897256
8.30250e-06	-0.00157778260752228
8.30275e-06	-0.0015848262583617817
8.30300e-06	-0.0015883853660441677
8.30325e-06	-0.001586857414945184
8.30350e-06	-0.0015816904033637087
8.30375e-06	-0.0015712107543005445
8.30400e-06	-0.001557022239837539
8.30425e-06	-0.0015374191802103568
8.30450e-06	-0.001514379021107286
8.30475e-06	-0.0014863210659018453
8.30500e-06	-0.0014551262196900205
8.30525e-06	-0.0014193518495005067
8.30550e-06	-0.0013806483230056987
8.30575e-06	-0.0013376685428867863
8.30600e-06	-0.0012926307008427147
8.30625e-06	-0.001243367598882825
8.30650e-06	-0.0011912255779242256
8.30675e-06	-0.0011365093659544715
8.30700e-06	-0.0010795236218700377
8.30725e-06	-0.0010205669469214506
8.30750e-06	-0.000959909411491798
8.30775e-06	-0.0008977916583258221
8.30800e-06	-0.0008344866927468473
8.30825e-06	-0.000770338021828959
8.30850e-06	-0.000705722057053622
8.30875e-06	-0.0006410167516445621
8.30900e-06	-0.0005766000133995507
8.30925e-06	-0.0005128459039811805
8.30950e-06	-0.0004501105624042884
8.30975e-06	-0.0003887317246391748
8.31000e-06	-0.0003290673017515923
8.31025e-06	-0.00027151940185007347
8.31050e-06	-0.00021651070710918845
8.31075e-06	-0.0001644648119502329
8.31100e-06	-0.00011580527873179256
8.31125e-06	-7.090151539691673e-05
8.31150e-06	-2.982885234788049e-05
8.31175e-06	7.791654145100628e-06
8.31200e-06	4.238762011769911e-05
8.31225e-06	7.401490065821225e-05
8.31250e-06	0.00010251133320824765
8.31275e-06	0.00012770288347308716
8.31300e-06	0.0001494155660335544
8.31325e-06	0.00016750933320063943
8.31350e-06	0.00018202835733718817
8.31375e-06	0.00019330135312729542
8.31400e-06	0.0002016875014594429
8.31425e-06	0.0002073130886777021
8.31450e-06	0.0002101678436281112
8.31475e-06	0.0002102340420779637
8.31500e-06	0.00020749401303552341
8.31525e-06	0.00020195135908435117
8.31550e-06	0.00019372504901133048
8.31575e-06	0.00018311230926965728
8.31600e-06	0.00017042938839699324
8.31625e-06	0.00015584665160209933
8.31650e-06	0.0001394489144057606
8.31675e-06	0.00012131632875714866
8.31700e-06	0.00010152906435249471
8.31725e-06	8.0180618182493e-05
8.31750e-06	5.743675052212516e-05
8.31775e-06	3.357484722574732e-05
8.31800e-06	8.884214928568849e-06
8.31825e-06	-1.6437255991606668e-05
8.31850e-06	-4.229838336631758e-05
8.31875e-06	-6.847600920754587e-05
8.31900e-06	-9.474696511050412e-05
8.31925e-06	-0.00012115417288013261
8.31950e-06	-0.000147318687291204
8.31975e-06	-0.00017312889546281006
8.32000e-06	-0.00019828447252861274
8.32025e-06	-0.00022248435848509012
8.32050e-06	-0.00024600054372887
8.32075e-06	-0.0002679654545460696
8.32100e-06	-0.0002884966950660906
8.32125e-06	-0.00030722036758459295
8.32150e-06	-0.0003246396649490153
8.32175e-06	-0.0003415303911981436
8.32200e-06	-0.0003576494603851142
8.32225e-06	-0.000373300706481598
8.32250e-06	-0.0003882689811084789
8.32275e-06	-0.0004032372557353598
8.32300e-06	-0.0004173229438060749
8.32325e-06	-0.00043012015029109796
8.32350e-06	-0.00044291735677612104
8.32375e-06	-0.000454857080840645
8.32400e-06	-0.00046554497266140116
8.32425e-06	-0.00047623286448215724
8.32450e-06	-0.0004869207563029133
8.32475e-06	-0.000497608648123597
8.32500e-06	-0.0005082965399443531
8.32525e-06	-0.0005189844317651092
8.32550e-06	-0.0005296723235857928
8.32575e-06	-0.000540360215406549
8.32600e-06	-0.0005510481072273051
8.32625e-06	-0.0005617359990479887
8.32650e-06	-0.0005724238908687448
8.32675e-06	-0.0005820832249808294
8.32700e-06	-0.0005902409753007741
8.32725e-06	-0.0005983987256207741
8.32750e-06	-0.0006065564759407739
8.32775e-06	-0.0006147142262607186
8.32800e-06	-0.0006228719765807186
8.32825e-06	-0.0006310297269007185
8.32850e-06	-0.0006391874772206632
8.32875e-06	-0.0006473452275406632
8.32900e-06	-0.0006555029778606632
8.32925e-06	-0.0006636607281806078
8.32950e-06	-0.0006718184785006078
8.32975e-06	-0.0006791617907122227
8.33000e-06	-0.0006853161107524921
8.33025e-06	-0.0006897323865911767
8.33050e-06	-0.0006958811806379697
8.33075e-06	-0.02653797323254843
8.33100e-06	-0.02658387295899889
8.33125e-06	-0.018975649493025194
8.33150e-06	-0.013708894983759382
8.33175e-06	0.001128096493290251
8.33200e-06	0.009074636467297293
8.33225e-06	0.00852880004417263
8.33250e-06	0.0035189175894978202
8.33275e-06	-0.005655113109364163
8.33300e-06	-0.010488029096986122
8.33325e-06	-0.009264552088086596
8.33350e-06	-0.004546916463160685
8.33375e-06	0.002395690925893375
8.33400e-06	0.006347286575510469
8.33425e-06	0.0063307899428339896
8.33450e-06	0.0030439066461293864
8.33475e-06	-0.0028193261055776174
8.33500e-06	-0.0059299793713493195
8.33525e-06	-0.005223360590616127
8.33550e-06	-0.0023114258219278554
8.33575e-06	0.002005887355522796
8.33600e-06	0.0044579341000768975
8.33625e-06	0.00443045994893795
8.33650e-06	0.0023589884991567552
8.33675e-06	-0.001322809952072635
8.33700e-06	-0.0032778066833744324
8.33725e-06	-0.0028399244989350575
8.33750e-06	-0.001019550034524632
8.33775e-06	0.001681767372272572
8.33800e-06	0.003215032859758405
8.33825e-06	0.003195382207600392
8.33850e-06	0.0018955783845816965
8.33875e-06	-0.00041277115771729553
8.33900e-06	-0.0016394224585241242
8.33925e-06	-0.0013673746714884766
8.33950e-06	-0.00022974064220073322
8.33975e-06	0.001459152785919201
8.34000e-06	0.0024157392268089888
8.34025e-06	0.002398935385425337
8.34050e-06	0.001579600689584861
8.34075e-06	0.00012785746011312587
8.34100e-06	-0.0006470466941467938
8.34125e-06	-0.00048405506057477984
8.34150e-06	0.00022008413342714276
8.34175e-06	0.0012683316428995556
8.34200e-06	0.0018566288949538412
8.34225e-06	0.0018340482316819321
8.34250e-06	0.0013077328612288498
8.34275e-06	0.0003843577064412384
8.34300e-06	-0.00011589780346797524
8.34325e-06	-2.948425242411116e-05
8.34350e-06	0.0003951035596512281
8.34375e-06	0.00103448565673192
8.34400e-06	0.0013850747592534997
8.34425e-06	0.0013524314181721042
8.34450e-06	0.0010037726751614866
8.34475e-06	0.0004060164489385933
8.34500e-06	7.299250768070273e-05
8.34525e-06	0.00010719045642449828
8.34550e-06	0.00035299854982201527
8.34575e-06	0.0007331874283648084
8.34600e-06	0.0009323846233541563
8.34625e-06	0.0008915245392613158
8.34650e-06	0.000652803778307373
8.34675e-06	0.00025822793533446345
8.34700e-06	2.9731098080939506e-05
8.34725e-06	3.156683367623451e-05
8.34750e-06	0.00016631602214332565
8.34775e-06	0.0003856649807277375
8.34800e-06	0.0004921387211059012
8.34825e-06	0.00044882346337965913
8.34850e-06	0.0002822364939877081
8.34875e-06	1.877306826143457e-05
8.34900e-06	-0.00013983498687081546
8.34925e-06	-0.0001532775821732605
8.34950e-06	-8.251514062453812e-05
8.34975e-06	4.2255749541144735e-05
8.35000e-06	9.741120371393551e-05
8.35025e-06	5.990936530165213e-05
8.35050e-06	-5.355803099421234e-05
8.35075e-06	-0.0002263771698288758
8.35100e-06	-0.0003321100857313108
8.35125e-06	-0.00034544700267682266
8.35150e-06	-0.00030459400503247714
8.35175e-06	-0.0002286159563058109
8.35200e-06	-0.0001951178494181777
8.35225e-06	-0.00021862728000095267
8.35250e-06	-0.00028874460992565893
8.35275e-06	-0.00039511444100028806
8.35300e-06	-0.0004585917862308994
8.35325e-06	-0.00046338242483372324
8.35350e-06	-0.0004334780047965992
8.35375e-06	-0.0003808784246066775
8.35400e-06	-0.0003542502167354011
8.35425e-06	-0.00036274564964678345
8.35450e-06	-0.00039990240802354393
8.35475e-06	-0.00045928648190359515
8.35500e-06	-0.0004913766036372503
8.35525e-06	-0.0004863370338655156
8.35550e-06	-0.0004592535564909188
8.35575e-06	-0.0004176993238510005
8.35600e-06	-0.00039221356918084285
8.35625e-06	-0.00038858216293334054
8.35650e-06	-0.0004028099453944412
8.35675e-06	-0.00043091973534727
8.35700e-06	-0.00044194617442541815
8.35725e-06	-0.00042978455528638366
8.35750e-06	-0.00040394070698383165
8.35775e-06	-0.00036921393142333
8.35800e-06	-0.00034478827421466774
8.35825e-06	-0.0003343413096061853
8.35850e-06	-0.00033542364347298036
8.35875e-06	-0.00034559733417841346
8.35900e-06	-0.00034552009429409086
8.35925e-06	-0.00033142333553520424
8.35950e-06	-0.0003093167359089548
8.35975e-06	-0.00028226134996025475
8.36000e-06	-0.00026232819008415923
8.36025e-06	-0.0002518742871128277
8.36050e-06	-0.000249418666580682
8.36075e-06	-0.00025348770044453055
8.36100e-06	-0.0002520194660610427
8.36125e-06	-0.00024271453459260276
8.36150e-06	-0.0002294598906369764
8.36175e-06	-0.0002143562235716757
8.36200e-06	-0.0002050726499370881
8.36225e-06	-0.00020306669151397326
8.36250e-06	-0.00020734036384892116
8.36275e-06	-0.0002168941739556504
8.36300e-06	-0.0002240965051286016
8.36325e-06	-0.0002274313421650482
8.36350e-06	-0.00022925779432234696
8.36375e-06	-0.0002308158337722352
8.36400e-06	-0.0002368332185564526
8.36425e-06	-0.00024814646355462874
8.36450e-06	-0.0002640539729669933
8.36475e-06	-0.0002838532051954719
8.36500e-06	-0.00030268752579784336
8.36525e-06	-0.0003195313780623351
8.36550e-06	-0.00033578651755706196
8.36575e-06	-0.00035215354325455
8.36600e-06	-0.0003715176597980797
8.36625e-06	-0.0003943264128844263
8.36650e-06	-0.00042006383735187185
8.36675e-06	-0.00044821348306175844
8.36700e-06	-0.00047565684646549885
8.36725e-06	-0.0005016754001683107
8.36750e-06	-0.0005274780130259053
8.36775e-06	-0.0005533332545245047
8.36800e-06	-0.0005791884960229289
8.36825e-06	-0.0006070936492169924
8.36850e-06	-0.0006365566993821605
8.36875e-06	-0.0006663156182571664
8.36900e-06	-0.0006960745371323738
8.36925e-06	-0.0007239530339521242
8.36950e-06	-0.0007498373795049576
8.36975e-06	-0.0007752311894729424
8.37000e-06	-0.0008006249994409272
8.37025e-06	-0.000825769698924104
8.37050e-06	-0.0008495057629066781
8.37075e-06	-0.0008727330255278027
8.37100e-06	-0.0008959602881487699
8.37125e-06	-0.0009160713768553444
8.37150e-06	-0.0009337311975379809
8.37175e-06	-0.0009509090543755742
8.37200e-06	-0.000968086911213284
8.37225e-06	-0.0009859954762943006
8.37250e-06	-0.0010040719818394845
8.37275e-06	-0.0010221037256602412
8.37300e-06	-0.0010401354694809979
8.37325e-06	-0.0010581672133016323
8.37350e-06	-0.0010753407716426594
8.37375e-06	-0.0010921815285134656
8.37400e-06	-0.0011090222853841578
8.37425e-06	-0.001127173913130445
8.37450e-06	-0.0011458338922354407
8.37475e-06	-0.0011647225837894022
8.37500e-06	-0.001183699969269359
8.37525e-06	-0.001202677354749316
8.37550e-06	-0.001221654740229144
8.37575e-06	-0.0012411985381919064
8.37600e-06	-0.0012609619890286692
8.37625e-06	-0.001280725439865432
8.37650e-06	-0.0013004888907020608
8.37675e-06	-0.0013206416951585984
8.37700e-06	-0.0013409454896518762
8.37725e-06	-0.0013612492841450165
8.37750e-06	-0.0013815530786382944
8.37775e-06	-0.0014018568731315722
8.37800e-06	-0.0014221606676247125
8.37825e-06	-0.0014424644621179904
8.37850e-06	-0.0014623148119433534
8.37875e-06	-0.0014805627894632586
8.37900e-06	-0.0014988107669832874
8.37925e-06	-0.0015170587445033161
8.37950e-06	-0.0015353067220232211
8.37975e-06	-0.00155355469954325
8.38000e-06	-0.0015718026770632787
8.38025e-06	-0.0015900506545831836
8.38050e-06	-0.0016062099851118033
8.38075e-06	-0.0016215593452946846
8.38100e-06	-0.001635339468805961
8.38125e-06	-0.001648511047563426
8.38150e-06	-0.0016584552768217412
8.38175e-06	-0.001667147950694868
8.38200e-06	-0.0016699841514382337
8.38225e-06	-0.0016705492314103836
8.38250e-06	-0.0016651743726789593
8.38275e-06	-0.001657496025504855
8.38300e-06	-0.0016441744828101844
8.38325e-06	-0.0016286645276908955
8.38350e-06	-0.001607111665031974
8.38375e-06	-0.0015832153829588636
8.38400e-06	-0.0015522683150864995
8.38425e-06	-0.0015185869759678698
8.38450e-06	-0.0014784417943860353
8.38475e-06	-0.0014357899562287093
8.38500e-06	-0.0013874992426286667
8.38525e-06	-0.0013370217919151514
8.38550e-06	-0.0012826576136698757
8.38575e-06	-0.0012240589902411004
8.38600e-06	-0.0011617324623131781
8.38625e-06	-0.001095953250371743
8.38650e-06	-0.0010271190842628458
8.38675e-06	-0.0009556442570548242
8.38700e-06	-0.0008819187693472598
8.38725e-06	-0.0008063432125180669
8.38750e-06	-0.0007292114779040877
8.38775e-06	-0.0006506611152748431
8.38800e-06	-0.0005709135419041618
8.38825e-06	-0.0004903628298064317
8.38850e-06	-0.00040947961402333064
8.38875e-06	-0.00032874486148604803
8.38900e-06	-0.00024862436382307705
8.38925e-06	-0.0001695904293977709
8.38950e-06	-9.204860575244882e-05
8.38975e-06	-1.6306377175309475e-05
8.39000e-06	5.727617837753686e-05
8.39025e-06	0.00012823090878838988
8.39050e-06	0.0001960417371846309
8.39075e-06	0.00026018613343059923
8.39100e-06	0.00032015111783871455
8.39125e-06	0.00037547632904595446
8.39150e-06	0.0004263561089546918
8.39175e-06	0.0004739206473654875
8.39200e-06	0.000519139282005059
8.39225e-06	0.0005621549440162069
8.39250e-06	0.0006016999894395018
8.39275e-06	0.0006401412891331608
8.39300e-06	0.0006740974047431986
8.39325e-06	0.0007063141809055846
8.39350e-06	0.0007343281089186635
8.39375e-06	0.0007607121864192154
8.39400e-06	0.0007845395330433425
