Time(s)	Current(A)
1.12500e-05	0.0025574923147994116
1.12503e-05	0.0025889367451506686
1.12505e-05	0.002620381175501713
1.12508e-05	0.0026387576350349836
1.12510e-05	0.0026538229883987362
1.12513e-05	0.0026688883417623865
1.12515e-05	0.0026839536951261387
1.12518e-05	0.002699019048489891
1.12520e-05	0.002714084401853541
1.12523e-05	0.002729149755217294
1.12525e-05	0.0027422082465315798
1.12527e-05	0.0027487208953002012
1.12530e-05	0.0027509553155514815
1.12533e-05	0.0027531897358027612
1.12535e-05	0.0027554241560540263
1.12538e-05	0.0027576585763053065
1.12540e-05	0.0027598929965565867
1.12542e-05	0.0027621274168078513
1.12545e-05	0.0027643618370591315
1.12548e-05	0.0027665962573104118
1.12550e-05	0.0027688306775616916
1.12553e-05	0.0027710650978129566
1.12555e-05	0.002769456580020995
1.12558e-05	0.0027668743551367884
1.12560e-05	0.002764292130252599
1.12563e-05	0.002761709905368392
1.12565e-05	0.002759127680484185
1.12568e-05	0.002756545455599996
1.12570e-05	0.0027539632307157893
1.12573e-05	0.0027513810058315824
1.12575e-05	0.002748798780947393
1.12578e-05	0.002746216556063186
1.12580e-05	0.0027392345404630395
1.12583e-05	0.002721880252324708
1.12585e-05	0.0027045259641862583
1.12588e-05	0.0026871716760478092
1.12590e-05	0.0026698173879094777
1.12593e-05	0.0026524630997710285
1.12595e-05	0.0026351088116325794
1.12598e-05	0.002617754523494248
1.12600e-05	0.0026004002353557988
1.12603e-05	0.0025830459472173492
1.12605e-05	0.0025564414128154377
1.12608e-05	0.0025080299149691917
1.12610e-05	0.0024596184171229458
1.12612e-05	0.002411206919277028
1.12615e-05	0.0023627954214307826
1.12618e-05	0.0023143839235845367
1.12620e-05	0.002265972425738619
1.12623e-05	0.002217560927892373
1.12625e-05	0.0021691494300461276
1.12627e-05	0.0021207379322002095
1.12630e-05	0.0020668640857391023
1.12633e-05	0.0020001130430195102
1.12635e-05	0.0019333620002999186
1.12638e-05	0.0018666109575807793
1.12640e-05	0.0017998599148611875
1.12643e-05	0.0017331088721415958
1.12645e-05	0.0016636081676852656
1.12648e-05	0.0015934107657783092
1.12650e-05	0.001523213363871353
1.12653e-05	0.0014530159619648723
1.12655e-05	0.001382818560057916
1.12658e-05	0.0013137870897721147
1.12660e-05	0.0012475042412554637
1.12663e-05	0.0011812213927383638
1.12665e-05	0.0011164493437373615
1.12668e-05	0.0010552389242207657
1.12670e-05	0.0009958157899336276
1.12673e-05	0.0009406060854916777
1.12675e-05	0.0008877041455001157
1.12678e-05	0.0008402426374253403
1.12680e-05	0.0007946441594203603
1.12683e-05	0.0007545563900501367
1.12685e-05	0.0007181929874754795
1.12688e-05	0.0006855224904930257
1.12690e-05	0.0006566929221437244
1.12693e-05	0.000631859615140277
1.12695e-05	0.0006111779492637606
1.12697e-05	0.000594781048680772
1.12700e-05	0.0005826690259699515
1.12703e-05	0.000574599214425791
1.12705e-05	0.000570256630410627
1.12708e-05	0.0005694940426997467
1.12710e-05	0.0005722764831700021
1.12712e-05	0.0005785736838376781
1.12715e-05	0.0005883553247085082
1.12718e-05	0.0006015771283435628
1.12720e-05	0.0006185259302190451
1.12723e-05	0.0006386558273849522
1.12725e-05	0.0006603093851443445
1.12728e-05	0.0006855548916935985
1.12730e-05	0.0007121323302516278
1.12733e-05	0.0007418497276620503
1.12735e-05	0.0007729552892600427
1.12738e-05	0.0008073333740795736
1.12740e-05	0.0008417114588993375
1.12743e-05	0.0008772776264122528
1.12745e-05	0.0009156446356680279
1.12748e-05	0.000954011644924063
1.12750e-05	0.000992378654180098
1.12753e-05	0.0010307456634358733
1.12755e-05	0.0010689900350519762
1.12758e-05	0.0011069452949562415
1.12760e-05	0.0011449005548602499
1.12763e-05	0.0011828558147645152
1.12765e-05	0.0012208110746687807
1.12768e-05	0.0012572397688960255
1.12770e-05	0.0012900696657533665
1.12773e-05	0.0013228995626107076
1.12775e-05	0.001353806186620962
1.12778e-05	0.001380178797212314
1.12780e-05	0.001406551407803666
1.12782e-05	0.0014316100676228104
1.12785e-05	0.0014535711583986378
1.12788e-05	0.0014755322491744655
1.12790e-05	0.0014950043865851852
1.12793e-05	0.001508608948849121
1.12795e-05	0.001522213511113057
1.12797e-05	0.0015358180733769005
1.12800e-05	0.0015494226356408364
1.12803e-05	0.001563027197904772
1.12805e-05	0.001576631760168708
1.12808e-05	0.0015902363224325514
1.12810e-05	0.0016038408846964873
1.12813e-05	0.001617445446960423
1.12815e-05	0.001628340913280421
1.12818e-05	0.0016328498300346966
1.12820e-05	0.001637358746788972
1.12823e-05	0.001641867663543217
1.12825e-05	0.0016463765802974927
1.12828e-05	0.0016508854970517682
1.12830e-05	0.0016553944138060132
1.12833e-05	0.0016599033305602887
1.12835e-05	0.0016644122473145643
1.12838e-05	0.0016689211640688094
1.12840e-05	0.0016720075387536193
1.12843e-05	0.0016717403461874725
1.12845e-05	0.0016714731536213274
1.12848e-05	0.0016712059610551804
1.12850e-05	0.0016709387684890335
1.12853e-05	0.0016706715759228885
1.12855e-05	0.0016704043833567414
1.12858e-05	0.0016701371907905946
1.12860e-05	0.0016698699982244495
1.12863e-05	0.0016696028056583025
1.12865e-05	0.0016693356130921557
1.12867e-05	0.0016690684205260106
1.12870e-05	0.0016688436426430626
1.12873e-05	0.0016687188551193406
1.12875e-05	0.0016685940675956194
1.12878e-05	0.0016684692800718976
1.12880e-05	0.0016683444925481756
1.12882e-05	0.0016682197050244545
1.12885e-05	0.0016680949175007327
1.12888e-05	0.0016679701299770107
1.12890e-05	0.0016678453424532889
1.12893e-05	0.0016677205549295677
1.12895e-05	0.0016675957674058457
1.12898e-05	0.001667470979882124
1.12900e-05	0.0016684075633264306
1.12903e-05	0.0016718462723640751
1.12905e-05	0.0016752849814017198
1.12908e-05	0.001678723690439341
1.12910e-05	0.0016821623994769854
1.12913e-05	0.0016856011085146301
1.12915e-05	0.0016890398175522512
1.12918e-05	0.0016924785265898957
1.12920e-05	0.0016959172356275404
1.12923e-05	0.0016993559446651615
1.12925e-05	0.001702794653702806
1.12928e-05	0.0017062333627404507
1.12930e-05	0.0017096720717780717
1.12933e-05	0.0017131107808157162
1.12935e-05	0.0017170797557434902
1.12938e-05	0.0017222988042977986
1.12940e-05	0.0017275178528521425
1.12943e-05	0.0017327369014064863
1.12945e-05	0.0017379559499607947
1.12948e-05	0.0017431749985151385
1.12950e-05	0.0017483940470694823
1.12952e-05	0.0017536130956237908
1.12955e-05	0.0017588321441781348
1.12958e-05	0.0017640511927324786
1.12960e-05	0.001769270241286787
1.12963e-05	0.0017744892898411309
1.12965e-05	0.0017797083383954747
1.12967e-05	0.0017849273869497832
1.12970e-05	0.0017899517786378425
1.12973e-05	0.0017945172771190365
1.12975e-05	0.0017990827756002308
1.12978e-05	0.001803648274081394
1.12980e-05	0.0018082137725625883
1.12983e-05	0.0018127792710437823
1.12985e-05	0.0018196063138445258
1.12988e-05	0.001831764827068899
1.12990e-05	0.0018439233402932724
1.12993e-05	0.0018560818535175634
1.12995e-05	0.0018682403667419365
1.12998e-05	0.0018803988799663098
1.13000e-05	0.0018951005000407957
1.13003e-05	0.00191579735922669
1.13005e-05	0.0019364942184125842
1.13008e-05	0.001960571126788325
1.13010e-05	0.0019926163213182533
1.13013e-05	0.0020246615158481815
1.13015e-05	0.002056706710377893
1.13018e-05	0.0020887519049078212
1.13020e-05	0.0021207970994377495
1.13023e-05	0.0021528422939674605
1.13025e-05	0.0021848874884973887
1.13028e-05	0.0022201907816957415
1.13030e-05	0.00226317486918127
1.13033e-05	0.00230615895666709
1.13035e-05	0.00234914304415291
1.13037e-05	0.0023921271316384393
1.13040e-05	0.0024351112191242593
1.13043e-05	0.0024780953066100794
1.13045e-05	0.002521079394095608
1.13048e-05	0.0025637553115591895
1.13050e-05	0.0026057047345892084
1.13052e-05	0.002647654157618943
1.13055e-05	0.0026896035806489617
1.13058e-05	0.0027315530036789806
1.13060e-05	0.0027735024267089995
1.13063e-05	0.002815451849738734
1.13065e-05	0.0028574012727687528
1.13068e-05	0.0028993506957987717
1.13070e-05	0.002941300118828506
1.13073e-05	0.00297843196893337
1.13075e-05	0.0030042066471487544
1.13078e-05	0.0030299813253639642
1.13080e-05	0.003055756003579349
1.13083e-05	0.0030815306817947334
1.13085e-05	0.003107305360009943
1.13088e-05	0.0031330800382253273
1.13090e-05	0.003158854716440712
1.13093e-05	0.0031846293946559217
1.13095e-05	0.0032104040728713062
1.13098e-05	0.0032316532029431793
1.13100e-05	0.0032422335940122775
1.13103e-05	0.0032528139850814468
1.13105e-05	0.0032633943761506165
1.13108e-05	0.003273974767219714
1.13110e-05	0.003284555158288884
1.13113e-05	0.0032951355493580537
1.13115e-05	0.0033057159404271514
1.13118e-05	0.003316296331496321
1.13120e-05	0.003326876722565491
1.13122e-05	0.0033374571136345886
1.13125e-05	0.0033480375047037583
1.13128e-05	0.0033582884819403835
1.13130e-05	0.0033601658649637807
1.13133e-05	0.003362043247987191
1.13135e-05	0.0033639206310106013
1.13137e-05	0.003365798014033999
1.13140e-05	0.003367675397057409
1.13143e-05	0.0033695527800808194
1.13145e-05	0.0033714301631042297
1.13148e-05	0.003373307546127627
1.13150e-05	0.003375184929151037
1.13153e-05	0.0033770623121744474
1.13155e-05	0.003378939695197845
1.13158e-05	0.0033808170782212554
1.13160e-05	0.003112851617345661
1.13163e-05	-0.0011644695223435514
1.13165e-05	-0.0061568519302425285
1.13168e-05	-0.007046594571474428
1.13170e-05	-0.00545227864751942
1.13173e-05	-0.00208719519185089
1.13175e-05	0.0017960286585130283
1.13178e-05	0.0034784799569547503
1.13180e-05	0.0029136798808877223
1.13183e-05	0.0006147562643393214
1.13185e-05	-0.002206007108537673
1.13188e-05	-0.003305095097980289
1.13190e-05	-0.0023195648319228952
1.13193e-05	-0.0002382115814165461
1.13195e-05	0.0019837070273205862
1.13198e-05	0.0032212597881795813
1.13200e-05	0.0029465224635825955
1.13203e-05	0.0015837361677998663
1.13205e-05	0.0005186740962761253
1.13207e-05	-0.000395455796924877
1.13210e-05	0.00019632318416485344
1.13213e-05	0.0015055123486133189
1.13215e-05	0.0027377522772891166
1.13218e-05	0.0034224443733106105
1.13220e-05	0.0031129052059956485
1.13222e-05	0.0022076252376365658
1.13225e-05	0.0012373568061952913
1.13228e-05	0.0007133033659070808
1.13230e-05	0.0010547131022745888
1.13233e-05	0.0018247964510479534
1.13235e-05	0.0025468491804761808
1.13238e-05	0.0029263480870439936
1.13240e-05	0.0026837766955502876
1.13243e-05	0.00206903496006705
1.13245e-05	0.001414844505974842
1.13248e-05	0.0010416514107991495
1.13250e-05	0.0012122744353493238
1.13253e-05	0.0016533116813594161
1.13255e-05	0.002066384565797505
1.13258e-05	0.0022672543328581267
1.13260e-05	0.002081098770429855
1.13263e-05	0.0016647219489341724
1.13265e-05	0.0012267905045909027
1.13268e-05	0.0009682631356485012
1.13270e-05	0.001053983726285555
1.13273e-05	0.0013129086052189487
1.13275e-05	0.0015583650227098272
1.13278e-05	0.0016751654723797362
1.13280e-05	0.0015538660942922885
1.13283e-05	0.0012924216958536269
1.13285e-05	0.0010211001410869878
1.13288e-05	0.0008654729108213757
1.13290e-05	0.0009285964987858746
1.13292e-05	0.0011031319457070528
1.13295e-05	0.0012719606370843158
1.13298e-05	0.0013627507257297138
1.13300e-05	0.001306774759924877
1.13303e-05	0.0011652196482533214
1.13305e-05	0.0010195066319422137
1.13307e-05	0.0009481077998517082
1.13310e-05	0.001015385483812176
1.13313e-05	0.0011539106191606951
1.13315e-05	0.001290134514048368
1.13318e-05	0.0013785683807424948
1.13320e-05	0.0013759851910982947
1.13323e-05	0.0013205363375564506
1.13325e-05	0.0012630438501423954
1.13328e-05	0.001252477882871877
1.13330e-05	0.001328966224906001
1.13333e-05	0.0014500826527234995
1.13335e-05	0.001569571780361565
1.13338e-05	0.0016587582334046465
1.13340e-05	0.0016903860859236114
1.13343e-05	0.0016881746476227065
1.13345e-05	0.0016837777840705529
1.13348e-05	0.0017076865330177301
1.13350e-05	0.0017848502905154536
1.13353e-05	0.0018885069817262947
1.13355e-05	0.001989498462861755
1.13358e-05	0.002069680970220673
1.13360e-05	0.0021118011139754744
1.13363e-05	0.002130536765385451
1.13365e-05	0.0021455342254748135
1.13368e-05	0.002175709791335815
1.13370e-05	0.0022365069728930947
1.13373e-05	0.002309439792121117
1.13375e-05	0.0023763724321597744
1.13377e-05	0.0024340989813907733
1.13380e-05	0.0024606425451266234
1.13383e-05	0.0024702571938216133
1.13385e-05	0.0024761080210055336
1.13388e-05	0.0024904120946700153
1.13390e-05	0.0025229101103513914
1.13392e-05	0.002561971241014369
1.13395e-05	0.002596315856429224
1.13398e-05	0.0026245827637439204
1.13400e-05	0.0026322605524472654
1.13403e-05	0.0026289015977440573
1.13405e-05	0.002622759641779769
1.13408e-05	0.002620151032395601
1.13410e-05	0.0026291481372270136
1.13413e-05	0.0026417532112063056
1.13415e-05	0.0026509689973281225
1.13418e-05	0.0026550981759838935
1.13420e-05	0.0026450005437992346
1.13423e-05	0.002633062852419807
1.13425e-05	0.002615978671111118
1.13428e-05	0.002601617080804038
1.13430e-05	0.00259487034724288
1.13433e-05	0.002587135691519166
1.13435e-05	0.0025766379010682913
1.13438e-05	0.0025661401106174164
1.13440e-05	0.0025524360086903912
1.13443e-05	0.0025297641247645957
1.13445e-05	0.0025083384470460566
1.13448e-05	0.0024903983026811458
1.13450e-05	0.002472458158316113
1.13453e-05	0.0024548571803924345
1.13455e-05	0.0024382048223175645
1.13458e-05	0.0024215524642425814
1.13460e-05	0.0024038858619665534
1.13462e-05	0.002383382504448228
1.13465e-05	0.0023628791469297635
1.13468e-05	0.002342375789411299
1.13470e-05	0.0023235625305862767
1.13473e-05	0.0023094763348528785
1.13475e-05	0.0022953901391194803
1.13477e-05	0.0022813039433861775
1.13480e-05	0.0022679511927825875
1.13483e-05	0.002256649826170247
1.13485e-05	0.0022453484595579064
1.13488e-05	0.0022372907693497318
1.13490e-05	0.0022383053676845654
1.13493e-05	0.002239319966019399
1.13495e-05	0.0022422040167472458
1.13498e-05	0.002250316767694721
1.13500e-05	0.0022584295186421966
1.13503e-05	0.0022689479127912856
1.13505e-05	0.002286194687499517
1.13508e-05	0.0023034414622077485
1.13510e-05	0.002323605256362193
1.13513e-05	0.0023519277071788244
1.13515e-05	0.0023802501579954557
1.13518e-05	0.0024115560680997273
1.13520e-05	0.0024512064614835706
1.13523e-05	0.0024908568548674143
1.13525e-05	0.002530507248250989
1.13528e-05	0.0025701576416348325
1.13530e-05	0.0026098080350186762
1.13533e-05	0.002649458428402251
1.13535e-05	0.0026919392238621575
1.13538e-05	0.002742336414526653
1.13540e-05	0.0027927336051908076
1.13543e-05	0.0028431307958553032
1.13545e-05	0.002893527986519799
1.13548e-05	0.0029439251771839533
1.13550e-05	0.002994322367848449
1.13553e-05	0.003044105930379735
1.13555e-05	0.0030921732269241203
1.13558e-05	0.003140240523468831
1.13560e-05	0.003188307820013542
1.13562e-05	0.003236375116557927
1.13565e-05	0.003284442413102638
1.13568e-05	0.0033325097096473487
1.13570e-05	0.0033805770061920595
1.13573e-05	0.003414937064449645
1.13575e-05	0.0034450481823589973
1.13578e-05	0.003475159300268349
1.13580e-05	0.003505270418177497
1.13583e-05	0.003535381536086849
1.13585e-05	0.003565492653996201
1.13588e-05	0.003595603771905349
1.13590e-05	0.00361807235773544
1.13593e-05	0.003619165427758203
1.13595e-05	0.003620258497780959
1.13598e-05	0.0036213515678037225
1.13600e-05	0.003622444637826486
1.13603e-05	0.003623537707849242
1.13605e-05	0.003624630777872005
1.13608e-05	0.0036257238478947683
1.13610e-05	0.0036268169179175243
1.13613e-05	0.0036279099879402876
1.13615e-05	0.0036217713622638944
1.13618e-05	0.0035954062953855574
1.13620e-05	0.003569041228507042
1.13623e-05	0.0035426761616285263
1.13625e-05	0.0035163110947501897
1.13628e-05	0.0034899460278716744
1.13630e-05	0.0034635809609931587
1.13633e-05	0.003437215894114822
1.13635e-05	0.0034108508272363064
1.13638e-05	0.003384485760357791
1.13640e-05	0.0033550932369604074
1.13643e-05	0.0033172331737453104
1.13645e-05	0.003279373110530214
1.13647e-05	0.0032415130473153735
1.13650e-05	0.0032036529841002765
1.13653e-05	0.00316579292088518
1.13655e-05	0.003127932857670083
1.13658e-05	0.003090072794455243
1.13660e-05	0.0030552089153308417
1.13663e-05	0.003021273786930119
1.13665e-05	0.0029873386585296253
1.13668e-05	0.0029534035301289024
1.13670e-05	0.002919468401728179
1.13673e-05	0.002885533273327686
1.13675e-05	0.0028515981449269627
1.13678e-05	0.0028189752833724085
1.13680e-05	0.002790022721194048
1.13683e-05	0.0027610701590154913
1.13685e-05	0.0027321175968369345
1.13688e-05	0.002703165034658574
1.13690e-05	0.0026742124724800174
1.13693e-05	0.0026452599103014606
1.13695e-05	0.0026094080890279093
1.13698e-05	0.002571417650204393
1.13700e-05	0.0025334272113808763
1.13703e-05	0.002495436772557617
1.13705e-05	0.0024574463337341005
1.13708e-05	0.002419455894910584
1.13710e-05	0.0023781513789115374
1.13713e-05	0.0023275776693576313
1.13715e-05	0.0022770039598037253
1.13718e-05	0.0022264302502501623
1.13720e-05	0.0021758565406962563
1.13723e-05	0.0021252828311423503
1.13725e-05	0.0020747091215887873
1.13728e-05	0.0020217763757135084
1.13730e-05	0.001962245604775197
1.13732e-05	0.001902714833837289
1.13735e-05	0.0018431840628989776
1.13738e-05	0.0017836532919606662
1.13740e-05	0.001724122521022355
1.13743e-05	0.0016645917500844472
1.13745e-05	0.0016046776685944672
1.13748e-05	0.0015436914999118919
1.13750e-05	0.00148270533122973
1.13753e-05	0.0014217191625471547
1.13755e-05	0.0013607329938645795
1.13758e-05	0.0013013191568973246
1.13760e-05	0.001246302998748678
1.13763e-05	0.0011912868406000318
1.13765e-05	0.0011362706824517583
1.13768e-05	0.001081254524303112
1.13770e-05	0.0010282766516062605
1.13773e-05	0.0009809996909207318
1.13775e-05	0.0009354268407748388
1.13778e-05	0.0008946202436761306
1.13780e-05	0.0008553631822114046
1.13783e-05	0.000820440040854847
1.13785e-05	0.0007866488544645187
1.13788e-05	0.0007560236503746973
1.13790e-05	0.0007266675303330844
1.13793e-05	0.0007008609310364549
1.13795e-05	0.0006765017832418821
1.13798e-05	0.0006561910348733804
1.13800e-05	0.0006371775475519326
1.13803e-05	0.0006217923896576936
1.13805e-05	0.0006073896401451495
1.13808e-05	0.0005957346037851241
1.13810e-05	0.0005850945602523584
1.13813e-05	0.0005772933658098958
1.13815e-05	0.0005705656031059318
1.13817e-05	0.0005668401381845124
1.13820e-05	0.0005640407429777529
1.13823e-05	0.0005638314864367684
1.13825e-05	0.000564297780337487
1.13828e-05	0.0005666535316861543
1.13830e-05	0.000569810572183331
1.13833e-05	0.000575208750656446
1.13835e-05	0.0005806069291295244
1.13838e-05	0.0005868431867950034
1.13840e-05	0.0005954234810774895
1.13843e-05	0.0006040037753599173
1.13845e-05	0.0006131288960265999
1.13848e-05	0.0006237778500089748
1.13850e-05	0.0006344268039912775
1.13853e-05	0.0006450757579736524
1.13855e-05	0.0006557247119560273
1.13858e-05	0.00066637366593833
1.13860e-05	0.0006770435362540011
1.13863e-05	0.0006877198901698496
1.13865e-05	0.0006983962440856257
1.13868e-05	0.0007090725980014742
1.13870e-05	0.0007197489519173227
1.13873e-05	0.0007297328258109764
1.13875e-05	0.0007377798916518673
1.13878e-05	0.000745826957492758
1.13880e-05	0.0007538740233335943
1.13883e-05	0.0007619210891744851
1.13885e-05	0.0007699681550153759
1.13888e-05	0.0007780152208562121
1.13890e-05	0.0007865403563818484
1.13893e-05	0.0007952136829240195
1.13895e-05	0.000803887009466132
1.13898e-05	0.000812560336008303
1.13900e-05	0.0008212336625504742
1.13902e-05	0.0008299069890925866
1.13905e-05	0.000839374582566752
1.13908e-05	0.000851063673471973
1.13910e-05	0.0008627527643771146
1.13913e-05	0.0008744418552823355
1.13915e-05	0.0008861309461875564
1.13918e-05	0.0008978200370927773
1.13920e-05	0.000909509127997919
1.13923e-05	0.0009211982189031399
1.13925e-05	0.0009328873098083607
1.13928e-05	0.0009445764007135024
1.13930e-05	0.0009579876723686283
1.13933e-05	0.0009719327819226556
1.13935e-05	0.0009858778914765883
1.13938e-05	0.0009998230010306156
1.13940e-05	0.001013768110584643
1.13943e-05	0.0010277132201385757
1.13945e-05	0.0010416583296926029
1.13948e-05	0.0010556034392466302
1.13950e-05	0.001069548548800563
1.13953e-05	0.0010832147351838232
1.13955e-05	0.0010961007970491275
1.13958e-05	0.0011089868589143443
1.13960e-05	0.0011218729207796486
1.13963e-05	0.0011347589826449526
1.13965e-05	0.0011476450445101695
1.13968e-05	0.0011605311063754738
1.13970e-05	0.0011720972863161446
1.13973e-05	0.0011799718681458765
1.13975e-05	0.001187846449975662
1.13978e-05	0.0011957210318054474
