Time(s)	Current(A)
1.25000e-05	-0.00024484455652973525
1.25003e-05	-0.00026927436355526056
1.25005e-05	-0.00029367669946751585
1.25008e-05	-0.0003179306805519752
1.25010e-05	-0.0003421846616364346
1.25012e-05	-0.0003664386427207296
1.25015e-05	-0.0003906926238051889
1.25018e-05	-0.0004149360467478754
1.25020e-05	-0.0004391739389996758
1.25023e-05	-0.000463411831251312
1.25025e-05	-0.0004876497235031124
1.25028e-05	-0.0005118876157549128
1.25030e-05	-0.0005359216019181992
1.25033e-05	-0.0005588544149130531
1.25035e-05	-0.0005817872279079072
1.25038e-05	-0.0006047200409026058
1.25040e-05	-0.0006276528538974598
1.25043e-05	-0.0006505856668923138
1.25045e-05	-0.0006699373920943519
1.25048e-05	-0.0006874132294703206
1.25050e-05	-0.0007048890668462893
1.25053e-05	-0.0007223649042221395
1.25055e-05	-0.0007398407415981083
1.25058e-05	-0.000757316578974077
1.25060e-05	-0.0007747924163499272
1.25063e-05	-0.0007922682537258959
1.25065e-05	-0.0008097440911018646
1.25068e-05	-0.0008272199284777149
1.25070e-05	-0.0008391416456512628
1.25073e-05	-0.0008481539377904949
1.25075e-05	-0.000857166229929666
1.25078e-05	-0.0008661785220688982
1.25080e-05	-0.0008751908142081304
1.25083e-05	-0.0008842031063473015
1.25085e-05	-0.0008932153984865336
1.25088e-05	-0.0009022276906257658
1.25090e-05	-0.0009112399827649368
1.25093e-05	-0.000920252274904169
1.25095e-05	-0.000925378315076956
1.25097e-05	-0.0009284686127108902
1.25100e-05	-0.0009315589103448454
1.25103e-05	-0.0009346492079788006
1.25105e-05	-0.0009377395056127557
1.25108e-05	-0.00094082980324669
1.25110e-05	-0.0009439201008806451
1.25113e-05	-0.0009470103985146003
1.25115e-05	-0.0009501006961485345
1.25118e-05	-0.0009531909937824897
1.25120e-05	-0.0009562812914164448
1.25123e-05	-0.0009572090247228908
1.25125e-05	-0.0009570039379670703
1.25128e-05	-0.00095679885121125
1.25130e-05	-0.0009565937644554309
1.25133e-05	-0.0009563886776996105
1.25135e-05	-0.0009561835909437901
1.25138e-05	-0.000955978504187971
1.25140e-05	-0.0009557734174321506
1.25143e-05	-0.0009555683306763302
1.25145e-05	-0.0009553632439205112
1.25148e-05	-0.0009551581571646908
1.25150e-05	-0.000954566843018558
1.25153e-05	-0.0009537732106658386
1.25155e-05	-0.0009529795783131139
1.25158e-05	-0.0009521859459603893
1.25160e-05	-0.0009508037172676379
1.25163e-05	-0.0009491131630678976
1.25165e-05	-0.0009474226088681573
1.25168e-05	-0.0009457320546684285
1.25170e-05	-0.0009398423130747257
1.25173e-05	-0.000928425265644629
1.25175e-05	-0.0009121180972067505
1.25178e-05	-0.0008912023362970773
1.25180e-05	-0.0008659627930005481
1.25182e-05	-0.000836684353798656
1.25185e-05	-0.0008034276070573056
1.25188e-05	-0.0007655820571101282
1.25190e-05	-0.0007221666714011875
1.25193e-05	-0.0006727654163317782
1.25195e-05	-0.0006176426385049462
1.25198e-05	-0.0005572563321114569
1.25200e-05	-0.000492066569593289
1.25203e-05	-0.0004225334152070379
1.25205e-05	-0.0003489764583538456
1.25208e-05	-0.00027129485479523356
1.25210e-05	-0.0001891557001937528
1.25213e-05	-0.00010258007606745833
1.25215e-05	-1.2015205605138491e-05
1.25218e-05	8.197038313637505e-05
1.25220e-05	0.00017880693401662893
1.25223e-05	0.0002779247240920664
1.25225e-05	0.0003793491138649732
1.25228e-05	0.00048160625163387507
1.25230e-05	0.0005857081691534964
1.25233e-05	0.0006907764410555758
1.25235e-05	0.0007958447129576551
1.25238e-05	0.0009009129848590226
1.25240e-05	0.001005981256761102
1.25243e-05	0.0011110495286631814
1.25245e-05	0.0012121149647438799
1.25248e-05	0.0013110835879498993
1.25250e-05	0.0014100522111559187
1.25253e-05	0.00150390406847597
1.25255e-05	0.0015950756008796477
1.25258e-05	0.0016802054739474843
1.25260e-05	0.001762170533454567
1.25263e-05	0.0018365149338922034
1.25265e-05	0.0019068673904246221
1.25267e-05	0.001970927607311285
1.25270e-05	0.002031691748692072
1.25273e-05	0.0020924558900728587
1.25275e-05	0.002148582258488446
1.25278e-05	0.0022022792137318284
1.25280e-05	0.0022559761689755747
1.25283e-05	0.0023053841264492644
1.25285e-05	0.0023459390918754556
1.25288e-05	0.002383033478279507
1.25290e-05	0.0024201278646835585
1.25293e-05	0.0024572222510873586
1.25295e-05	0.0024943166374914102
1.25298e-05	0.0025314110238954615
1.25300e-05	0.0025685054102992616
1.25303e-05	0.0026055997967033132
1.25305e-05	0.002640832876552535
1.25308e-05	0.002666014168067701
1.25310e-05	0.0026911954595830374
1.25313e-05	0.0027163767510983735
1.25315e-05	0.0027415580426135393
1.25318e-05	0.0027667393341288754
1.25320e-05	0.0027919206256442116
1.25323e-05	0.0028171019171593773
1.25325e-05	0.002842283208674714
1.25328e-05	0.002859320663366648
1.25330e-05	0.002872092116984119
1.25333e-05	0.002884863570601677
1.25335e-05	0.002897635024219235
1.25338e-05	0.0029104064778367068
1.25340e-05	0.0029231779314542647
1.25343e-05	0.0029359493850718227
1.25345e-05	0.002948720838689294
1.25348e-05	0.002961492292306852
1.25350e-05	0.00297426374592441
1.25352e-05	0.002987035199541881
1.25355e-05	0.002999806653159439
1.25358e-05	0.003012578106776997
1.25360e-05	0.003025349560394555
1.25363e-05	0.0030381210140120267
1.25365e-05	0.0030508924676295847
1.25368e-05	0.0030636639212471427
1.25370e-05	0.003076435374864614
1.25373e-05	0.003089206828482172
1.25375e-05	0.00310197828209973
1.25378e-05	0.0031125281072876244
1.25380e-05	0.003111080264127053
1.25383e-05	0.0031096324209664815
1.25385e-05	0.0031081845778059194
1.25388e-05	0.0031067367346453477
1.25390e-05	0.0031052888914847765
1.25393e-05	0.0031038410483242144
1.25395e-05	0.0031023932051636427
1.25398e-05	0.0031009453620030715
1.25400e-05	0.0030994975188425094
1.25403e-05	0.0030980496756819378
1.25405e-05	0.0030966018325213666
1.25408e-05	0.0030951539893608044
1.25410e-05	0.003093706146200233
1.25413e-05	0.0030922583030396616
1.25415e-05	0.0030908104598790995
1.25418e-05	0.003089362616718528
1.25420e-05	0.003087914773557956
1.25423e-05	0.0030864669303973945
1.25425e-05	0.003085019087236823
1.25428e-05	0.003083571244076251
1.25430e-05	0.0030789804473221752
1.25433e-05	0.0030727432713856698
1.25435e-05	0.003066506095449164
1.25437e-05	0.0030602689195127
1.25440e-05	0.003054031743576194
1.25443e-05	0.0030477945676396882
1.25445e-05	0.0030415573917031823
1.25448e-05	0.003035320215766719
1.25450e-05	0.003029083039830213
1.25453e-05	0.003022845863893707
1.25455e-05	0.0030166086879572437
1.25458e-05	0.003010371512020738
1.25460e-05	0.003004134336084232
1.25463e-05	0.002997897160147768
1.25465e-05	0.002991659984211262
1.25468e-05	0.002989159520930098
1.25470e-05	0.002988616466736843
1.25473e-05	0.0029880734125435843
1.25475e-05	0.0029875303583503255
1.25478e-05	0.00298698730415707
1.25480e-05	0.002986444249963812
1.25483e-05	0.002985901195770553
1.25485e-05	0.0029853581415772977
1.25488e-05	0.002984815087384039
1.25490e-05	0.00298427203319078
1.25493e-05	0.002983728978997525
1.25495e-05	0.0029831859248042663
1.25498e-05	0.0029826428706110075
1.25500e-05	0.0029820998164177526
1.25503e-05	0.002981556762224494
1.25505e-05	0.002985093405253077
1.25508e-05	0.0029907671236083107
1.25510e-05	0.002996440841963583
1.25513e-05	0.003002114560318855
1.25515e-05	0.0030077882786740885
1.25518e-05	0.003013461997029361
1.25520e-05	0.003019135715384633
1.25522e-05	0.0030248094337398668
1.25525e-05	0.0030304831520951386
1.25528e-05	0.003036156870450411
1.25530e-05	0.003041830588805683
1.25533e-05	0.003047646524401102
1.25535e-05	0.0030542304890962034
1.25538e-05	0.0030608144537913047
1.25540e-05	0.0030673984184863613
1.25543e-05	0.0030739823831814625
1.25545e-05	0.003080566347876564
1.25548e-05	0.0030871503125716204
1.25550e-05	0.0030937342772667216
1.25553e-05	0.003100318241961823
1.25555e-05	0.0031069022066568795
1.25558e-05	0.0031134861713519807
1.25560e-05	0.0031200701360470815
1.25563e-05	0.0031197862490688704
1.25565e-05	0.00311590476267003
1.25568e-05	0.0031120232762711893
1.25570e-05	0.003108141789872375
1.25573e-05	0.0031042603034735342
1.25575e-05	0.0031003788170746935
1.25578e-05	0.003096497330675879
1.25580e-05	0.0030733586601830567
1.25583e-05	0.0030401324633958053
1.25585e-05	0.003006906266608779
1.25588e-05	0.0029736800698215277
1.25590e-05	0.0029404538730342764
1.25593e-05	0.00290722767624725
1.25595e-05	0.0028740014794599988
1.25598e-05	0.0028252520507758777
1.25600e-05	0.0027683710588703356
1.25603e-05	0.002711490066964408
1.25605e-05	0.002646951911227494
1.25607e-05	0.0025784026892255317
1.25610e-05	0.002509853467223105
1.25613e-05	0.00243392246507541
1.25615e-05	0.0023541246514065628
1.25618e-05	0.0022743268377382565
1.25620e-05	0.002188610836655379
1.25623e-05	0.0020997947005336292
1.25625e-05	0.0020109785644124812
1.25628e-05	0.0019221624282907313
1.25630e-05	0.0018333462921689813
1.25633e-05	0.0017421762443468227
1.25635e-05	0.0016497731426120055
1.25638e-05	0.0015573700408771885
1.25640e-05	0.0014649669391429976
1.25643e-05	0.0013725638374081806
1.25645e-05	0.00128354835226805
1.25648e-05	0.0011963074085834674
1.25650e-05	0.0011090664648982934
1.25653e-05	0.0010262997166746858
1.25655e-05	0.0009458766945205122
1.25658e-05	0.0008692316671077634
1.25660e-05	0.0007976067483778231
1.25663e-05	0.0007310078298723389
1.25665e-05	0.0006699924724411795
1.25668e-05	0.0006149516263378009
1.25670e-05	0.0005660551127144528
1.25673e-05	0.0005233882277491517
1.25675e-05	0.00048706146187969156
1.25678e-05	0.0004572014467739576
1.25680e-05	0.0004339349896414986
1.25683e-05	0.0004173888567632307
1.25685e-05	0.00040766503378139303
1.25688e-05	0.00040476111187388435
1.25690e-05	0.00040853617434980866
1.25692e-05	0.00041879631247205716
1.25695e-05	0.0004353634814641586
1.25698e-05	0.0004580696903754036
1.25700e-05	0.0004867470874107331
1.25703e-05	0.0005212278307796096
1.25705e-05	0.0005613284938193977
1.25708e-05	0.000606800360579116
1.25710e-05	0.0006573078374427217
1.25713e-05	0.0007124822116689367
1.25715e-05	0.000773223006754952
1.25718e-05	0.0008360622221430478
1.25720e-05	0.0009034719879975682
1.25723e-05	0.0009732759537411993
1.25725e-05	0.0010473524792860719
1.25728e-05	0.00112366710772075
1.25730e-05	0.0011999817361554278
1.25733e-05	0.001279148014348949
1.25735e-05	0.0013598080775014609
1.25738e-05	0.001440468140653973
1.25740e-05	0.0015211282038059381
1.25743e-05	0.0016012571628154877
1.25745e-05	0.0016785179503107962
1.25748e-05	0.0017557787378055811
1.25750e-05	0.0018330395253008897
1.25753e-05	0.001910300312796198
1.25755e-05	0.0019805985498325815
1.25758e-05	0.002047249581207513
1.25760e-05	0.002113900612582444
1.25763e-05	0.002171715173813259
1.25765e-05	0.0022249009105737563
1.25768e-05	0.0022780866473342534
1.25770e-05	0.002323908786302139
1.25773e-05	0.0023658736382428107
1.25775e-05	0.002407838490183482
1.25777e-05	0.0024425369715289917
1.25780e-05	0.002473429096549416
1.25783e-05	0.002504321221569841
1.25785e-05	0.002527404102922578
1.25788e-05	0.0025463962537457243
1.25790e-05	0.002565388404569
1.25793e-05	0.0025734671653788238
1.25795e-05	0.0025758291449471888
1.25798e-05	0.0025781911245155702
1.25800e-05	0.0025805531040839513
1.25803e-05	0.0025829150836523163
1.25805e-05	0.0025852770632206973
1.25808e-05	0.002587639042789079
1.25810e-05	0.0025900010223574438
1.25813e-05	0.0025804241107228653
1.25815e-05	0.0025645932276650504
1.25818e-05	0.002548762344607343
1.25820e-05	0.002532931461549528
1.25823e-05	0.0025171005784917133
1.25825e-05	0.0025012696954340055
1.25828e-05	0.002485438812376191
1.25830e-05	0.002469607929318376
1.25833e-05	0.0024494864581738377
1.25835e-05	0.0024271174403493073
1.25838e-05	0.002404748422524777
1.25840e-05	0.0023823794047003978
1.25843e-05	0.002360010386875867
1.25845e-05	0.0023376413690513365
1.25848e-05	0.0023152723512269574
1.25850e-05	0.002292903333402427
1.25853e-05	0.002270534315577896
1.25855e-05	0.002248165297753517
1.25858e-05	0.002229140732536748
1.25860e-05	0.002211868098105028
1.25862e-05	0.0021945954636734253
1.25865e-05	0.002177322829241706
1.25868e-05	0.002160050194809986
1.25870e-05	0.002142777560378266
1.25873e-05	0.0021255049259466634
1.25875e-05	0.0021082322915149435
1.25878e-05	0.0020909596570832236
1.25880e-05	0.0020736870226516213
1.25883e-05	0.0020561742161609065
1.25885e-05	0.00203853559989704
1.25888e-05	0.002020896983633293
1.25890e-05	0.002003258367369427
1.25893e-05	0.0019856197511055602
1.25895e-05	0.0019679811348418137
1.25898e-05	0.001950342518577947
1.25900e-05	0.0019327039023140807
1.25903e-05	0.0019150652860503337
1.25905e-05	0.0018974266697864672
1.25908e-05	0.001879788053522601
1.25910e-05	0.001862149437258854
1.25913e-05	0.0018441150812720005
1.25915e-05	0.0018239435749416296
1.25918e-05	0.0018037720686113954
1.25920e-05	0.0017836005622810245
1.25923e-05	0.0017634290559506536
1.25925e-05	0.0017432575496204193
1.25928e-05	0.0017230860432900484
1.25930e-05	0.0017029145369596775
1.25933e-05	0.0016827430306294432
1.25935e-05	0.0016625715242990723
1.25938e-05	0.0016424000179687014
1.25940e-05	0.0016222285116384674
1.25943e-05	0.0016020570053080965
1.25945e-05	0.00158678266212173
1.25947e-05	0.0015740736089486244
1.25950e-05	0.0015613645557754328
1.25953e-05	0.0015486555026022412
1.25955e-05	0.0015359464494291357
1.25958e-05	0.001523237396255944
1.25960e-05	0.0015105283430827522
1.25963e-05	0.0014978192899095606
1.25965e-05	0.001485110236736455
1.25968e-05	0.0014724011835632635
1.25970e-05	0.0014596921303900719
1.25973e-05	0.0014469830772169663
1.25975e-05	0.0014342740240437745
1.25978e-05	0.0014215649708705829
1.25980e-05	0.0014088559176974773
1.25983e-05	0.0013987236870360302
1.25985e-05	0.0014025073126767297
1.25988e-05	0.0014062909383174035
1.25990e-05	0.0014100745639581027
1.25993e-05	0.0014138581895988022
1.25995e-05	0.001417641815239476
1.25998e-05	0.0014214254408801755
1.26000e-05	0.0014252090665208747
1.26003e-05	0.0014289926921615486
1.26005e-05	0.001432776317802248
1.26008e-05	0.0014365599434429475
1.26010e-05	0.0014403435690836211
1.26013e-05	0.0014441271947243206
1.26015e-05	0.00144791082036502
1.26018e-05	0.0014516944460056936
1.26020e-05	0.001455478071646393
1.26023e-05	0.0014646175519026786
1.26025e-05	0.0014765625993731742
1.26028e-05	0.001488507646843751
1.26030e-05	0.0015004526943143276
1.26032e-05	0.0015123977417848232
1.26035e-05	0.0015243427892554
1.26038e-05	0.0015362878367259764
1.26040e-05	0.0015482328841964722
1.26043e-05	0.0015600365471102153
1.26045e-05	0.0015710766777403508
1.26048e-05	0.0015821168083704864
1.26050e-05	0.0015931569390005471
1.26053e-05	0.0016041970696306826
1.26055e-05	0.0016152372002608182
1.26058e-05	0.001626277330890879
1.26060e-05	0.0016373174615210144
1.26063e-05	0.00164835759215115
1.26065e-05	0.0016528894658525948
1.26068e-05	0.0016540121073073573
1.26070e-05	0.0016551347487621197
1.26073e-05	0.0016562573902168746
1.26075e-05	0.001657380031671637
1.26078e-05	0.0016585026731263997
1.26080e-05	0.0016596253145811546
1.26083e-05	0.001660747956035917
1.26085e-05	0.0016618705974906795
1.26088e-05	0.0016629932389454344
1.26090e-05	0.0016641158804001968
1.26093e-05	0.0016652385218549593
1.26095e-05	0.001656865309165484
1.26098e-05	0.0016435178656618308
1.26100e-05	0.0016301704221581776
1.26103e-05	0.001616822978654615
1.26105e-05	0.0016034755351509618
1.26108e-05	0.0015901280916473086
1.26110e-05	0.0015767806481437458
1.26113e-05	0.0015634332046400926
1.26115e-05	0.0015500857611364396
1.26117e-05	0.0015367383176328768
1.26120e-05	0.0015233908741292235
1.26123e-05	0.0015100434306255703
1.26125e-05	0.0014925032539578101
1.26128e-05	0.0014727667901329022
1.26130e-05	0.0014530303263079942
1.26133e-05	0.0014332938624830862
1.26135e-05	0.001413557398658312
1.26138e-05	0.001393820934833404
1.26140e-05	0.0013740844710084961
1.26143e-05	0.0013546231257419294
1.26145e-05	0.00133664752903089
1.26148e-05	0.0013186719323198502
1.26150e-05	0.0013006963356089326
1.26153e-05	0.001282720738897893
1.26155e-05	0.0012647451421868535
1.26158e-05	0.0012467695454759357
1.26160e-05	0.0012287939487648962
1.26163e-05	0.001212946504646251
1.26165e-05	0.0011982138546308477
1.26168e-05	0.0011834812046153445
1.26170e-05	0.0011687485545998414
1.26173e-05	0.0011491993766965826
1.26175e-05	0.0011271271480935176
1.26178e-05	0.0011050549194904526
1.26180e-05	0.0010829826908875372
1.26183e-05	0.00105709942608606
1.26185e-05	0.0010292198191536584
1.26188e-05	0.000998150928415585
1.26190e-05	0.0009654113892505351
1.26193e-05	0.0009284091581588421
1.26195e-05	0.0008891739932820807
1.26198e-05	0.0008463783725160422
1.26200e-05	0.0008017176715652706
1.26202e-05	0.0007542919926132631
1.26205e-05	0.0007054179301272702
1.26208e-05	0.0006536421400197137
1.26210e-05	0.0006003463325727904
1.26213e-05	0.0005439180993670637
1.26215e-05	0.00048584900179040084
1.26218e-05	0.00042552904557627877
1.26220e-05	0.0003640300179249609
1.26223e-05	0.0003012199844624768
1.26225e-05	0.00023772320440457341
1.26228e-05	0.00017352444137273473
1.26230e-05	0.00010845152532966036
1.26233e-05	4.2756017960810047e-05
1.26235e-05	-2.322206619961943e-05
1.26238e-05	-8.908242785638537e-05
1.26240e-05	-0.00015442419744153736
1.26243e-05	-0.00021884653721973164
1.26245e-05	-0.0002819930956023897
1.26248e-05	-0.00034364203201424164
1.26250e-05	-0.00040364992748529
1.26253e-05	-0.00046176745666399614
1.26255e-05	-0.0005176135996035957
1.26258e-05	-0.0005707697168106775
1.26260e-05	-0.0006208167058536744
1.26263e-05	-0.0006673355561541258
1.26265e-05	-0.0007089860252599798
1.26268e-05	-0.0007487475329108171
1.26270e-05	-0.0007849501317007982
1.26273e-05	-0.0008192884606879256
1.26275e-05	-0.0008502330117103636
1.26278e-05	-0.0008793997937523752
1.26280e-05	-0.0009046496541363251
1.26283e-05	-0.0009278477062129479
1.26285e-05	-0.0009469543280733212
1.26288e-05	-0.0009639177284855571
1.26290e-05	-0.0009777384469182887
1.26293e-05	-0.000989912928444306
1.26295e-05	-0.0009984599034765997
1.26298e-05	-0.0010051066750814308
1.26300e-05	-0.001011753446686262
1.26303e-05	-0.0010138660388978008
1.26305e-05	-0.0010136034835419743
1.26308e-05	-0.0010133409281861462
1.26310e-05	-0.0010096440219916653
1.26313e-05	-0.0010041480934533478
1.26315e-05	-0.0009986521649149932
1.26318e-05	-0.0009903642522353523
1.26320e-05	-0.0009806138093455888
1.26323e-05	-0.0009708633664557593
1.26325e-05	-0.0009581470038395489
1.26328e-05	-0.0009438769980143595
1.26330e-05	-0.0009296069921890734
1.26333e-05	-0.0009153369863637873
1.26335e-05	-0.0009010669805385979
1.26338e-05	-0.0008867969747133118
1.26340e-05	-0.0008714475254489846
1.26343e-05	-0.0008555326293340526
1.26345e-05	-0.0008396177332190128
1.26348e-05	-0.000823702837103973
1.26350e-05	-0.000807787940989041
1.26353e-05	-0.0007918730448740013
1.26355e-05	-0.000779514479818606
1.26358e-05	-0.0007690188342319243
1.26360e-05	-0.0007585231886451715
1.26363e-05	-0.0007480275430584187
1.26365e-05	-0.000737531897471737
1.26368e-05	-0.0007270362518849841
1.26370e-05	-0.0007165406062982313
1.26373e-05	-0.0007060449607115497
1.26375e-05	-0.0006955493151247969
1.26378e-05	-0.0006850536695380441
1.26380e-05	-0.0006745580239513624
1.26383e-05	-0.0006693125150579455
1.26385e-05	-0.0006668171949674279
1.26388e-05	-0.0006643218748769103
1.26390e-05	-0.0006618265547864096
1.26393e-05	-0.000659331234695892
1.26395e-05	-0.0006568359146053744
1.26398e-05	-0.0006543405945148739
1.26400e-05	-0.0006518452744243562
1.26403e-05	-0.0006493499543338386
1.26405e-05	-0.000646854634243338
1.26408e-05	-0.0006443593141528203
1.26410e-05	-0.0006450660060447677
1.26413e-05	-0.0006474500137888043
1.26415e-05	-0.0006498340215328572
1.26418e-05	-0.0006522180292769101
1.26420e-05	-0.0006546020370209468
1.26423e-05	-0.0006569860447649996
1.26425e-05	-0.0006593700525090524
1.26428e-05	-0.000661754060253089
1.26430e-05	-0.0006644041665632287
1.26433e-05	-0.0006684913099217325
1.26435e-05	-0.0006725784532802086
1.26438e-05	-0.0006766655966387124
1.26440e-05	-0.0006807527399972162
1.26443e-05	-0.0006848398833556923
1.26445e-05	-0.0006889270267141962
1.26448e-05	-0.0006930141700727
1.26450e-05	-0.0006971013134311762
1.26453e-05	-0.0007009959916984856
1.26455e-05	-0.0007047898506215036
1.26458e-05	-0.0007085837095444959
1.26460e-05	-0.0007120120879189006
1.26463e-05	-0.0007152490159423095
