Time(s)	Current(A)
9.50000e-06	0.012238670672180877
9.50025e-06	0.01218928177636659
9.50050e-06	0.012139892880552637
9.50075e-06	0.01209050398473835
9.50100e-06	0.012041115088924064
9.50125e-06	0.011991726193110112
9.50150e-06	0.011944300225360801
9.50175e-06	0.011925864909916883
9.50200e-06	0.011907429594473088
9.50225e-06	0.01188899427902917
9.50250e-06	0.01187055896358525
9.50275e-06	0.011852123648141455
9.50300e-06	0.011833688332697536
9.50325e-06	0.011834787911587461
9.50350e-06	0.011851024883455198
9.50375e-06	0.011867261855322822
9.50400e-06	0.011883498827190557
9.50425e-06	0.011899735799058292
9.50450e-06	0.011915972770925917
9.50475e-06	0.011932209742793652
9.50500e-06	0.011948446714661387
9.50525e-06	0.011964683686529013
9.50550e-06	0.011982545903238394
9.50575e-06	0.012024411499884181
9.50600e-06	0.012066277096529686
9.50625e-06	0.01210814269317547
9.50650e-06	0.012150008289821258
9.50675e-06	0.012191873886466762
9.50700e-06	0.012233739483112547
9.50725e-06	0.012275605079758334
9.50750e-06	0.012317470676403838
9.50775e-06	0.012359336273049623
9.50800e-06	0.012402972537159624
9.50825e-06	0.01244798087366362
9.50850e-06	0.01249298921016792
9.50875e-06	0.01253799754667222
9.50900e-06	0.012583005883176216
9.50925e-06	0.012628014219680517
9.50950e-06	0.012666601454037545
9.50975e-06	0.012700213040975619
9.51000e-06	0.01273382462791392
9.51025e-06	0.012767436214852223
9.51050e-06	0.012801047801790297
9.51075e-06	0.012834659388728598
9.51100e-06	0.012855789735908474
9.51125e-06	0.012867248496035835
9.51150e-06	0.012878707256163273
9.51175e-06	0.012890166016290712
9.51200e-06	0.012901624776418149
9.51225e-06	0.01291308353654551
9.51250e-06	0.012924542296672947
9.51275e-06	0.012936001056800386
9.51300e-06	0.012947459816927747
9.51325e-06	0.012958918577055185
9.51350e-06	0.012970377337182622
9.51375e-06	0.012981836097309983
9.51400e-06	0.012980429609132534
9.51425e-06	0.012969053969544881
9.51450e-06	0.012957678329957305
9.51475e-06	0.01294630269036965
9.51500e-06	0.012934927050781997
9.51525e-06	0.01292355141119442
9.51550e-06	0.012912175771606768
9.51575e-06	0.012900800132019113
9.51600e-06	0.012889424492431537
9.51625e-06	0.012878048852843884
9.51650e-06	0.012866673213256229
9.51675e-06	0.012855297573668652
9.51700e-06	0.012839467814411289
9.51725e-06	0.012820186602656727
9.51750e-06	0.012800905390902296
9.51775e-06	0.012781624179147735
9.51800e-06	0.012762342967393174
9.51825e-06	0.012743061755638743
9.51850e-06	0.012723780543884181
9.51875e-06	0.01270449933212962
9.51900e-06	0.012685218120375189
9.51925e-06	0.012665936908620628
9.51950e-06	0.012646655696866066
9.51975e-06	0.012628108560131376
9.52000e-06	0.012620403040102713
9.52025e-06	0.012612697520074052
9.52050e-06	0.01260499200004539
9.52075e-06	0.012597286480016779
9.52100e-06	0.012589580959988116
9.52125e-06	0.012581875439959454
9.52150e-06	0.012574169919930843
9.52175e-06	0.012566464399902182
9.52200e-06	0.01255875887987352
9.52225e-06	0.012551053359844909
9.52250e-06	0.012543347839816246
9.52275e-06	0.012548575723686454
9.52300e-06	0.012563825572052144
9.52325e-06	0.012579075420417939
9.52350e-06	0.012594325268783733
9.52375e-06	0.012609575117149423
9.52400e-06	0.012624824965515218
9.52425e-06	0.01264007481388101
9.52450e-06	0.012655324662246703
9.52475e-06	0.012670574510612495
9.52500e-06	0.01268582435897829
9.52525e-06	0.012709595576503635
9.52550e-06	0.01273996991721666
9.52575e-06	0.012770344257929684
9.52600e-06	0.012800718598642503
9.52625e-06	0.012831092939355526
9.52650e-06	0.012861467280068551
9.52675e-06	0.012891841620781368
9.52700e-06	0.012922215961494394
9.52725e-06	0.012952590302207417
9.52750e-06	0.012982964642920236
9.52775e-06	0.01301338632454236
9.52800e-06	0.013043844690158428
9.52825e-06	0.013074303055774289
9.52850e-06	0.013104761421390356
9.52875e-06	0.013135219787006424
9.52900e-06	0.013165678152622491
9.52925e-06	0.01319613651823835
9.52950e-06	0.013226594883854418
9.52975e-06	0.013257053249470485
9.53000e-06	0.013286144972336754
9.53025e-06	0.01329505263161016
9.53050e-06	0.013303960290883564
9.53075e-06	0.013312867950156909
9.53100e-06	0.013321775609430314
9.53125e-06	0.013330683268703718
9.53150e-06	0.013339590927977063
9.53175e-06	0.013348498587250469
9.53200e-06	0.013357406246523873
9.53225e-06	0.013366313905797218
9.53250e-06	0.01335636469395307
9.53275e-06	0.013331803482486257
9.53300e-06	0.013307242271019612
9.53325e-06	0.013282681059552801
9.53350e-06	0.013258119848085989
9.53375e-06	0.013233558636619345
9.53400e-06	0.013208997425152533
9.53425e-06	0.013182788698867406
9.53450e-06	0.013132247685388515
9.53475e-06	0.013081706671909282
9.53500e-06	0.01303116565843005
9.53525e-06	0.012980624644951158
9.53550e-06	0.012930083631471925
9.53575e-06	0.012879542617992693
9.53600e-06	0.012829001604513803
9.53625e-06	0.012771862395446436
9.53650e-06	0.012709610311032273
9.53675e-06	0.01264735822661853
9.53700e-06	0.012583338356105107
9.53725e-06	0.012517948645937062
9.53750e-06	0.012452558935769019
9.53775e-06	0.012387142115000312
9.53800e-06	0.012321704286499245
9.53825e-06	0.012256266457998181
9.53850e-06	0.012192601487902788
9.53875e-06	0.012130310287940491
9.53900e-06	0.012068019087978192
9.53925e-06	0.012009760346310181
9.53950e-06	0.011954626315985109
9.53975e-06	0.011899492285660037
9.54000e-06	0.011845049173249462
9.54025e-06	0.01180081028658657
9.54050e-06	0.011756571399923678
9.54075e-06	0.011712332513261085
9.54100e-06	0.011672226756423622
9.54125e-06	0.0116353237202862
9.54150e-06	0.011598420684149029
9.54175e-06	0.011561517648011607
9.54200e-06	0.011524614611874186
9.54225e-06	0.011487711575737013
9.54250e-06	0.01145080853959959
9.54275e-06	0.01141390550346217
9.54300e-06	0.011377002467324997
9.54325e-06	0.011342819061746074
9.54350e-06	0.011310743070512884
9.54375e-06	0.011278667079279912
9.54400e-06	0.011246591088046721
9.54425e-06	0.01121451509681353
9.54450e-06	0.011182439105580559
9.54475e-06	0.011150363114347368
9.54500e-06	0.01111828712311418
9.54525e-06	0.011086211131881206
9.54550e-06	0.011055167792189388
9.54575e-06	0.011024924643783043
9.54600e-06	0.010994681495376695
9.54625e-06	0.010964438346970553
9.54650e-06	0.010934195198564207
9.54675e-06	0.01090395205015786
9.54700e-06	0.010873708901751718
9.54725e-06	0.010843465753345372
9.54750e-06	0.010813222604939025
9.54775e-06	0.010785833998770648
9.54800e-06	0.010760657348650495
9.54825e-06	0.010735480698530343
9.54850e-06	0.010710304048410361
9.54875e-06	0.010685127398290209
9.54900e-06	0.010659950748170057
9.54925e-06	0.010634774098050075
9.54950e-06	0.010609597447929922
9.54975e-06	0.01058442079780977
9.55000e-06	0.010562892126853012
9.55025e-06	0.010544190238232158
9.55050e-06	0.010525488349611305
9.55075e-06	0.010515291231463001
9.55100e-06	0.010511684374351937
9.55125e-06	0.010508077517240871
9.55150e-06	0.010504470660129831
9.55175e-06	0.010500863803018767
9.55200e-06	0.010497256945907701
9.55225e-06	0.010507646679970178
9.55250e-06	0.010528882231655321
9.55275e-06	0.010550117783340463
9.55300e-06	0.010571353335025463
9.55325e-06	0.010592588886710606
9.55350e-06	0.010613824438395748
9.55375e-06	0.010651631709393391
9.55400e-06	0.010702280238889849
9.55425e-06	0.010752928768386306
9.55450e-06	0.010803577297882764
9.55475e-06	0.01085422582737888
9.55500e-06	0.010904874356875337
9.55525e-06	0.010955522886371794
9.55550e-06	0.011006171415867908
9.55575e-06	0.011056819945364367
9.55600e-06	0.01111842827059418
9.55625e-06	0.01118852923122587
9.55650e-06	0.011258630191858035
9.55675e-06	0.011328731152490201
9.55700e-06	0.011398832113121891
9.55725e-06	0.011468933073754056
9.55750e-06	0.011539034034386221
9.55775e-06	0.011609134995017912
9.55800e-06	0.011679235955650076
9.55825e-06	0.011747107462882819
9.55850e-06	0.011813251389115422
9.55875e-06	0.011879395315348476
9.55900e-06	0.011945539241581529
9.55925e-06	0.012011683167814135
9.55950e-06	0.012077827094047188
9.55975e-06	0.01213314628198291
9.56000e-06	0.012180077489162616
9.56025e-06	0.012227008696342639
9.56050e-06	0.012273939903522662
9.56075e-06	0.012320871110702366
9.56100e-06	0.01236780231788239
9.56125e-06	0.012397681381746257
9.56150e-06	0.012414346911383274
9.56175e-06	0.012431012441020406
9.56200e-06	0.012447677970657536
9.56225e-06	0.012464343500294555
9.56250e-06	0.012481009029931687
9.56275e-06	0.012497674559568817
9.56300e-06	0.012514340089205836
9.56325e-06	0.012531005618842966
9.56350e-06	0.012547671148480098
9.56375e-06	0.012562365271381794
9.56400e-06	0.012547943519570483
9.56425e-06	0.012533521767759074
9.56450e-06	0.012519100015947665
9.56475e-06	0.012504678264136353
9.56500e-06	0.012490256512324943
9.56525e-06	0.012475834760513534
9.56550e-06	0.012461413008702222
9.56575e-06	0.012446991256890813
9.56600e-06	0.012432569505079403
9.56625e-06	0.012418147753268091
9.56650e-06	0.012395682061230671
9.56675e-06	0.01236698320087345
9.56700e-06	0.012338284340516424
9.56725e-06	0.012309585480159202
9.56750e-06	0.012280886619801982
9.56775e-06	0.012252187759444954
9.56800e-06	0.012223488899087732
9.56825e-06	0.012194790038730512
9.56850e-06	0.012166091178373485
9.56875e-06	0.012137392318016263
9.56900e-06	0.012108693457659043
9.56925e-06	0.012079994597302015
9.56950e-06	0.012059555506289982
9.56975e-06	0.012045516827410436
9.57000e-06	0.012031478148530983
9.57025e-06	0.012017439469651437
9.57050e-06	0.01200340079077189
9.57075e-06	0.011989362111892438
9.57100e-06	0.01197532343301289
9.57125e-06	0.011961284754133343
9.57150e-06	0.011947246075253892
9.57175e-06	0.011933207396374344
9.57200e-06	0.011919168717494797
9.57225e-06	0.01190513003861525
9.57250e-06	0.01190960860762856
9.57275e-06	0.01192843600566228
9.57300e-06	0.011947263403695998
9.57325e-06	0.011966090801729588
9.57350e-06	0.011984918199763306
9.57375e-06	0.012003745597797023
9.57400e-06	0.012022572995830615
9.57425e-06	0.012041400393864332
9.57450e-06	0.01206171990519418
9.57475e-06	0.0121040765654548
9.57500e-06	0.012146433225715708
9.57525e-06	0.012188789885976615
9.57550e-06	0.012231146546237236
9.57575e-06	0.012273503206498143
9.57600e-06	0.01231585986675905
9.57625e-06	0.012358216527019671
9.57650e-06	0.012400573187280578
9.57675e-06	0.012448082269237073
9.57700e-06	0.012499583910907587
9.57725e-06	0.01255108555257845
9.57750e-06	0.012602587194249313
9.57775e-06	0.012654088835919826
9.57800e-06	0.012705590477590688
9.57825e-06	0.012757092119261551
9.57850e-06	0.012808083750062019
9.57875e-06	0.012851542986683876
9.57900e-06	0.012895002223305732
9.57925e-06	0.012938461459927294
9.57950e-06	0.012981920696549151
9.57975e-06	0.013025379933171008
9.58000e-06	0.01306883916979257
9.58025e-06	0.013112298406414426
9.58050e-06	0.013143132487536544
9.58075e-06	0.013164183462728882
9.58100e-06	0.013185234437921078
9.58125e-06	0.013206285413113417
9.58150e-06	0.013227336388305755
9.58175e-06	0.01324838736349795
9.58200e-06	0.013269438338690289
9.58225e-06	0.013290489313882627
9.58250e-06	0.013311540289074823
9.58275e-06	0.013332591264267162
9.58300e-06	0.0133536422394595
9.58325e-06	0.013374693214651694
9.58350e-06	0.013395744189844032
9.58375e-06	0.01341679516503637
9.58400e-06	0.013437846140228566
9.58425e-06	0.013458897115420905
9.58450e-06	0.013471492206679501
9.58475e-06	0.01347753491858187
9.58500e-06	0.01348357763048428
9.58525e-06	0.01348962034238669
9.58550e-06	0.013495663054289057
9.58575e-06	0.013501705766191467
9.58600e-06	0.013507748478093877
9.58625e-06	0.013513791189996247
9.58650e-06	0.013519833901898657
9.58675e-06	0.013525876613801066
9.58700e-06	0.013531919325703435
9.58725e-06	0.013537962037605844
9.58750e-06	0.013544004749508254
9.58775e-06	0.013550047461410624
9.58800e-06	0.013556090173313034
9.58825e-06	0.013562132885215444
9.58850e-06	0.013565690038178849
9.58875e-06	0.013567321156536033
9.58900e-06	0.013568952274893216
9.58925e-06	0.0135705833932504
9.58950e-06	0.013572214511607573
9.58975e-06	0.013572794823066555
9.59000e-06	0.013572560874835812
9.59025e-06	0.01357232692660507
9.59050e-06	0.013572092978374327
9.59075e-06	0.013571859030143582
9.59100e-06	0.01356307043043696
9.59125e-06	0.013547652917398515
9.59150e-06	0.01353223540436007
9.59175e-06	0.013516817891321729
9.59200e-06	0.013501400378283282
9.59225e-06	0.013485982865244836
9.59250e-06	0.013470565352206495
9.59275e-06	0.013441914517615366
9.59300e-06	0.013403009315337297
9.59325e-06	0.013364104113059492
9.59350e-06	0.013325198910781422
9.59375e-06	0.013286293708503354
9.59400e-06	0.013247388506225548
9.59425e-06	0.013208483303947478
9.59450e-06	0.013156953567073795
9.59475e-06	0.01309564120539906
9.59500e-06	0.01303432884372391
9.59525e-06	0.01297301648204876
9.59550e-06	0.012911704120374025
9.59575e-06	0.012850391758698875
9.59600e-06	0.012789079397023725
9.59625e-06	0.01272776703534899
9.59650e-06	0.012665853942902225
9.59675e-06	0.012595068606267534
9.59700e-06	0.01252428326963332
9.59725e-06	0.012453497932998629
9.59750e-06	0.012382712596363936
9.59775e-06	0.012311927259729245
9.59800e-06	0.012241141923095031
9.59825e-06	0.01217035658646034
9.59850e-06	0.012099571249825648
9.59875e-06	0.0120319479764114
9.59900e-06	0.011966774953962384
9.59925e-06	0.011901601931513368
9.59950e-06	0.011846182487102083
9.59975e-06	0.011798320992150304
9.60000e-06	0.011750459497198527
9.60025e-06	0.011702598002247072
9.60050e-06	0.011654736507295295
9.60075e-06	0.011606875012343516
9.60100e-06	0.011559013517392063
9.60125e-06	0.011511152022440286
9.60150e-06	0.011463290527488507
9.60175e-06	0.01142632761077763
9.60200e-06	0.011397809892661188
9.60225e-06	0.011369292174544746
9.60250e-06	0.011340774456428497
9.60275e-06	0.011312256738312054
9.60300e-06	0.011283739020195612
9.60325e-06	0.011255221302079363
9.60350e-06	0.01122670358396292
9.60375e-06	0.011198185865846477
9.60400e-06	0.011177023159354265
9.60425e-06	0.011161559777348574
9.60450e-06	0.011146096395342883
9.60475e-06	0.011130633013337296
9.60500e-06	0.011115169631331604
9.60525e-06	0.011099706249325913
9.60550e-06	0.011084242867320326
9.60575e-06	0.011068779485314635
9.60600e-06	0.011053316103308944
9.60625e-06	0.011037852721303252
9.60650e-06	0.011022389339297665
9.60675e-06	0.011006925957291974
9.60700e-06	0.010991945988669607
9.60725e-06	0.010984105593695906
9.60750e-06	0.01097626519872215
9.60775e-06	0.010968424803748395
9.60800e-06	0.010960584408774694
9.60825e-06	0.010952744013800938
9.60850e-06	0.010944903618827185
9.60875e-06	0.010937063223853483
9.60900e-06	0.010929222828879728
9.60925e-06	0.010921382433905972
9.60950e-06	0.01091354203893227
9.60975e-06	0.010905701643958515
9.61000e-06	0.010897861248984762
9.61025e-06	0.010894332887813692
9.61050e-06	0.01089414587824071
9.61075e-06	0.010893958868667727
9.61100e-06	0.010893771859094745
9.61125e-06	0.010893584849521762
9.61150e-06	0.010893397839948778
9.61175e-06	0.010893210830375796
9.61200e-06	0.010894103209674821
9.61225e-06	0.010910937175651886
9.61250e-06	0.010927771141628835
9.61275e-06	0.010944605107605898
9.61300e-06	0.010961439073582963
9.61325e-06	0.010978273039559911
9.61350e-06	0.010995107005536974
9.61375e-06	0.011011940971514037
9.61400e-06	0.011039929335919952
9.61425e-06	0.011076561131412992
9.61450e-06	0.01111319292690603
9.61475e-06	0.01114982472239907
9.61500e-06	0.01118645651789186
9.61525e-06	0.0112230883133849
9.61550e-06	0.01125972010887794
9.61575e-06	0.01129635190437073
9.61600e-06	0.01133298369986377
9.61625e-06	0.011369615495356809
9.61650e-06	0.011406247290849601
9.61675e-06	0.011446912332850303
9.61700e-06	0.01149070269698028
9.61725e-06	0.011534493061109959
9.61750e-06	0.011578283425239935
9.61775e-06	0.011622073789369913
9.61800e-06	0.011665864153499593
9.61825e-06	0.01170965451762957
9.61850e-06	0.011753444881759546
9.61875e-06	0.011797235245889227
9.61900e-06	0.011841025610019203
9.61925e-06	0.01188481597414918
9.61950e-06	0.011921768933382471
9.61975e-06	0.011953423656371077
9.62000e-06	0.011985078379359682
9.62025e-06	0.012016733102348073
9.62050e-06	0.012048387825336678
9.62075e-06	0.012080042548325284
9.62100e-06	0.012111697271313676
9.62125e-06	0.012140851397413787
9.62150e-06	0.01216806783615002
9.62175e-06	0.012195284274886071
9.62200e-06	0.012222500713622304
9.62225e-06	0.01224971715235854
9.62250e-06	0.01227693359109459
9.62275e-06	0.012304150029830823
9.62300e-06	0.012330944805353508
9.62325e-06	0.012357412838295445
9.62350e-06	0.012375364970885094
9.62375e-06	0.011935017652283228
9.62400e-06	0.0025163619149609056
9.62425e-06	-0.002374209379494903
9.62450e-06	-0.00019515703244111127
9.62475e-06	0.0024312492250242517
9.62500e-06	0.009190264601704726
9.62525e-06	0.014318094120040602
9.62550e-06	0.014180499762106441
9.62575e-06	0.013307127699758737
9.62600e-06	0.008265995647316421
9.62625e-06	0.004225334148448532
9.62650e-06	0.005624491231629652
9.62675e-06	0.007381027234481143
9.62700e-06	0.011329691891445672
9.62725e-06	0.014813963538996054
9.62750e-06	0.015569704941471474
9.62775e-06	0.014324632516707202
9.62800e-06	0.011567350169195965
9.62825e-06	0.009040767590369838
9.62850e-06	0.008957134632183774
9.62875e-06	0.010383763269848516
9.62900e-06	0.012703369367171613
9.62925e-06	0.014861936323674389
9.62950e-06	0.01531697894739937
9.62975e-06	0.014520465071111426
9.63000e-06	0.012778028219749285
9.63025e-06	0.011181007200283588
9.63050e-06	0.011114788421801414
9.63075e-06	0.011995220697948818
9.63100e-06	0.013436050262345354
9.63125e-06	0.014777159831334609
9.63150e-06	0.015052236493520298
9.63175e-06	0.014544327259935505
9.63200e-06	0.013444813527220682
9.63225e-06	0.012437218264695463
9.63250e-06	0.012389202533808038
9.63275e-06	0.01293470100033644
9.63300e-06	0.013831650098122665
9.63325e-06	0.014666477465210645
9.63350e-06	0.014833867449197305
9.63375e-06	0.014511123308753376
9.63400e-06	0.013818126026303893
9.63425e-06	0.013183010840920412
9.63450e-06	0.01314921881358239
9.63475e-06	0.013487374032999874
9.63500e-06	0.014045796100355027
9.63525e-06	0.014565392829688682
9.63550e-06	0.014666996433395512
9.63575e-06	0.014461683919375523
9.63600e-06	0.014024557929313362
9.63625e-06	0.013623794814444309
9.63650e-06	0.013599771934758358
9.63675e-06	0.013808766722937951
9.63700e-06	0.014155740462600382
9.63725e-06	0.014478379768380779
9.63750e-06	0.01453917741622702
9.63775e-06	0.014407722314251536
9.63800e-06	0.014131063187862763
9.63825e-06	0.013877183308785887
9.63850e-06	0.013859273417739229
9.63875e-06	0.013987279122479893
9.63900e-06	0.014201648229310306
9.63925e-06	0.014400697951245215
9.63950e-06	0.014435653684723772
9.63975e-06	0.014350110406967586
9.64000e-06	0.014173541803618355
9.64025e-06	0.01401116440507467
9.64050e-06	0.013996375356437496
9.64075e-06	0.014072170987638931
9.64100e-06	0.01420046020848609
9.64125e-06	0.014317250403776204
9.64150e-06	0.014329436445672332
9.64175e-06	0.014264441331702692
9.64200e-06	0.014140837385525478
9.64225e-06	0.014024642659996766
9.64250e-06	0.013999515575000057
9.64275e-06	0.014029850779496287
9.64300e-06	0.014091888314931234
9.64325e-06	0.014145648563409835
9.64350e-06	0.014132919439187238
9.64375e-06	0.014070991467362785
9.64400e-06	0.013971606933466992
9.64425e-06	0.013876226609847156
9.64450e-06	0.01383735790815222
9.64475e-06	0.013832799297007448
9.64500e-06	0.013847772193973864
9.64525e-06	0.013857337087321595
9.64550e-06	0.013825138983675649
9.64575e-06	0.013762118474738396
9.64600e-06	0.013675738410851755
9.64625e-06	0.013592077968954784
9.64650e-06	0.013544131758174196
9.64675e-06	0.013518095856409309
9.64700e-06	0.013504816506362809
9.64725e-06	0.0134887797335325
9.64750e-06	0.013447318714557972
9.64775e-06	0.013387393589314229
9.64800e-06	0.013313788724431792
9.64825e-06	0.013242946032203325
9.64850e-06	0.013195637444870205
9.64875e-06	0.013163324693998757
9.64900e-06	0.01314045048024378
9.64925e-06	0.013117168806750613
9.64950e-06	0.013079628299346271
9.64975e-06	0.013032259969053692
9.65000e-06	0.012979609044281668
9.65025e-06	0.012927632954090188
9.65050e-06	0.012898805260777023
9.65075e-06	0.012870318955144955
9.65100e-06	0.012853543041608406
9.65125e-06	0.012836427389224274
9.65150e-06	0.012807657903571827
9.65175e-06	0.01277870687475426
