Time(s)	Current(A)
6.25000e-06	0.0005188324319008124
6.25025e-06	0.0004896947439879806
6.25050e-06	0.00046055705607505026
6.25075e-06	0.0004300757042715847
6.25100e-06	0.0003992498001666216
6.25125e-06	0.000368423896061763
6.25150e-06	0.00033767735939243984
6.25175e-06	0.00030695117471189867
6.25200e-06	0.00027622499003146164
6.25225e-06	0.0002472160922744965
6.25250e-06	0.00021864755401934148
6.25275e-06	0.00019168664065807067
6.25300e-06	0.00016643503217630385
6.25325e-06	0.00014298210848788515
6.25350e-06	0.00012151202357513373
6.25375e-06	0.00010210203670141385
6.25400e-06	8.472809310245834e-05
6.25425e-06	6.938283005451736e-05
6.25450e-06	5.610973746596608e-05
6.25475e-06	4.4964148755566376e-05
6.25500e-06	3.6001696637800556e-05
6.25525e-06	2.9277992816060183e-05
6.25550e-06	2.483101313023751e-05
6.25575e-06	2.2631759511785577e-05
6.25600e-06	2.2587762093494836e-05
6.25625e-06	2.461702735370045e-05
6.25650e-06	2.8669406474825637e-05
6.25675e-06	3.470217736222146e-05
6.25700e-06	4.26727986426284e-05
6.25725e-06	5.253872018191298e-05
6.25750e-06	6.424635128808371e-05
6.25775e-06	7.77001437300919e-05
6.25800e-06	9.276480252211301e-05
6.25825e-06	0.00010931159543697956
6.25850e-06	0.00012723175173351057
6.25875e-06	0.00014642116165811567
6.25900e-06	0.00016677583722464275
6.25925e-06	0.00018856082701623265
6.25950e-06	0.00021065271525684602
6.25975e-06	0.0002341873975389999
6.26000e-06	0.000258092051814005
6.26025e-06	0.000281996706089091
6.26050e-06	0.0003066659176264487
6.26075e-06	0.00033153118263078553
6.26100e-06	0.0003563964476352066
6.26125e-06	0.0003809914433189662
6.26150e-06	0.00040551713453081063
6.26175e-06	0.00043004282574273824
6.26200e-06	0.0004534835095210198
6.26225e-06	0.00047664596761299406
6.26250e-06	0.0004983015756029684
6.26275e-06	0.0005195707858679865
6.26300e-06	0.0005388032242030628
6.26325e-06	0.0005575133783118294
6.26350e-06	0.0005735168704568821
6.26375e-06	0.0005888263001844287
6.26400e-06	0.0006004578495892616
6.26425e-06	0.0006111462895321579
6.26450e-06	0.0006178786963653753
6.26475e-06	0.0006235966677275488
6.26500e-06	0.0006253766043740385
6.26525e-06	0.0006261467208317568
6.26550e-06	0.0006229102835910884
6.26575e-06	0.0006186464560138551
6.26600e-06	0.0006101188158397329
6.26625e-06	0.0006004978170864981
6.26650e-06	0.000586789955198431
6.26675e-06	0.0005720341094300038
6.26700e-06	0.000553553893278643
6.26725e-06	0.0005341186463379408
6.26750e-06	0.0005112671675426238
6.26775e-06	0.00048753967313424723
6.26800e-06	0.00046058596080461454
6.26825e-06	0.00043280495764980024
6.26850e-06	0.00040225967219000155
6.26875e-06	0.00037100554887561183
6.26900e-06	0.00033756521136734936
6.26925e-06	0.00030356426853455905
6.26950e-06	0.00026792112281196043
6.26975e-06	0.0002318568711948976
6.27000e-06	0.00019462032649628737
6.27025e-06	0.00015708317367542774
6.27050e-06	0.00011902938934672462
6.27075e-06	8.084312651935803e-05
6.27100e-06	4.265686369186207e-05
6.27125e-06	4.770183206600393e-06
6.27150e-06	-3.259945520505425e-05
6.27175e-06	-6.926099347296393e-05
6.27200e-06	-0.00010501807469208928
6.27225e-06	-0.0001396471272138193
6.27250e-06	-0.00017290218200914507
6.27275e-06	-0.00020453294643791187
6.27300e-06	-0.00023428907499273435
6.27325e-06	-0.0002619202426577107
6.27350e-06	-0.00028713845121229354
6.27375e-06	-0.0003095618749954045
6.27400e-06	-0.0003288234500603327
6.27425e-06	-0.0003447425900608445
6.27450e-06	-0.0003572803135548284
6.27475e-06	-0.000366424363049717
6.27500e-06	-0.00037216305602980054
6.27525e-06	-0.00037448474502302766
6.27550e-06	-0.0003733542075896961
6.27575e-06	-0.0003686774301697771
6.27600e-06	-0.00036036966744268573
6.27625e-06	-0.0003484629974386584
6.27650e-06	-0.00033307818241131045
6.27675e-06	-0.0003143527486327853
6.27700e-06	-0.0002924245841118701
6.27725e-06	-0.0002674315364692693
6.27750e-06	-0.00023949672075197133
6.27775e-06	-0.00020870642225107015
6.27800e-06	-0.00017515271905424725
6.27825e-06	-0.00013900089799075542
6.27850e-06	-0.00010047173337266211
6.27875e-06	-5.979651184385173e-05
6.27900e-06	-1.7206725346491893e-05
6.27925e-06	2.7066149472053646e-05
6.27950e-06	7.279989872590662e-05
6.27975e-06	0.00011979540315232184
6.28000e-06	0.0001681513219230121
6.28025e-06	0.00021679212448401673
6.28050e-06	0.00026617764823940197
6.28075e-06	0.00031575413894959376
6.28100e-06	0.00036531232434316367
6.28125e-06	0.0004145458288590541
6.28150e-06	0.0004631523942096126
6.28175e-06	0.0005108623304642974
6.28200e-06	0.0005574036677496397
6.28225e-06	0.0006024758565257153
6.28250e-06	0.0006457564681317612
6.28275e-06	0.000686919063316864
6.28300e-06	0.0007256371089831771
6.28325e-06	0.0007615842454643577
6.28350e-06	0.00079442744306614
6.28375e-06	0.0008238433925251128
6.28400e-06	0.000849590985933808
6.28425e-06	0.0008715484907115646
6.28450e-06	0.0008881033532570345
6.28475e-06	0.0009034722130063218
6.28500e-06	0.0009125480744237611
6.28525e-06	0.0009200102383452067
6.28550e-06	0.0009210233946891716
6.28575e-06	0.0009203828484846472
6.28600e-06	0.0009132809483139168
6.28625e-06	0.0009045221796417932
6.28650e-06	0.0008896266766867872
6.28675e-06	0.0008731575466270831
6.28700e-06	0.000850956263945006
6.28725e-06	0.0008272851000003982
6.28750e-06	0.0007982838865506326
6.28775e-06	0.0007679159021141802
6.28800e-06	0.0007327098011120003
6.28825e-06	0.0006962630742310327
6.28850e-06	0.0006556811642018817
6.28875e-06	0.0006140388797152978
6.28900e-06	0.0005690144259715877
6.28925e-06	0.0005231226912000017
6.28950e-06	0.00047460007534748334
6.28975e-06	0.00042540282937618363
6.29000e-06	0.00037412082347833194
6.29025e-06	0.0003223042279152878
6.29050e-06	0.0002704876323522436
6.29075e-06	0.0002180734376021217
6.29100e-06	0.00016550600201840107
6.29125e-06	0.00011293856643468047
6.29150e-06	6.110427919907971e-05
6.29175e-06	1.022924728456623e-05
6.29200e-06	-3.942118483022151e-05
6.29225e-06	-8.751070599733875e-05
6.29250e-06	-0.00013369325219034442
6.29275e-06	-0.0001776211947982416
6.29300e-06	-0.0002189469225698129
6.29325e-06	-0.00025732286865164615
6.29350e-06	-0.00029250519171496295
6.29375e-06	-0.00032460390659148664
6.29400e-06	-0.00035397997036239626
6.29425e-06	-0.00038079941472421474
6.29450e-06	-0.0004049811589519866
6.29475e-06	-0.000426391617717213
6.29500e-06	-0.0004448960747331042
6.29525e-06	-0.000460359860636131
6.29550e-06	-0.00047271319424439925
6.29575e-06	-0.00048210804879644207
6.29600e-06	-0.0004888535572151488
6.29625e-06	-0.0004931366281207731
6.29650e-06	-0.0004949895541027827
6.29675e-06	-0.000493443607851641
6.29700e-06	-0.0004911532528100179
6.29725e-06	-0.000485008855557428
6.29750e-06	-0.0004778761761005831
6.29775e-06	-0.00046731713055770286
6.29800e-06	-0.00045587947070732004
6.29825e-06	-0.00044169359275518223
6.29850e-06	-0.0004268029962517399
6.29875e-06	-0.000409465637373662
6.29900e-06	-0.0003915008614667863
6.29925e-06	-0.0003713633296240736
6.29950e-06	-0.0003506686435241867
6.29975e-06	-0.0003280750921076627
6.30000e-06	-0.0003049946195060068
6.30025e-06	-0.0002819141469044292
6.30050e-06	-0.0002577469450149552
6.30075e-06	-0.0002333010759086939
6.30100e-06	-0.0002088552068025154
6.30125e-06	-0.000184339177933402
6.30150e-06	-0.00015980515817532536
6.30175e-06	-0.00013527113841733186
6.30200e-06	-0.00011139809636101082
6.30225e-06	-8.831554963317439e-05
6.30250e-06	-6.614679349511948e-05
6.30275e-06	-4.5058883349623633e-05
6.30300e-06	-2.521867153128357e-05
6.30325e-06	-6.792992184581797e-06
6.30350e-06	1.0064965926160878e-05
6.30375e-06	2.525972062329036e-05
6.30400e-06	3.8762894656480456e-05
6.30425e-06	5.055763987883221e-05
6.30450e-06	6.061125210972138e-05
6.30475e-06	6.888660541101828e-05
6.30500e-06	7.534644687975893e-05
6.30525e-06	7.995353519488927e-05
6.30550e-06	8.267919108721514e-05
6.30575e-06	8.353087105797334e-05
6.30600e-06	8.255809110607026e-05
6.30625e-06	7.981757134877885e-05
6.30650e-06	7.535610181876332e-05
6.30675e-06	6.921769063040581e-05
6.30700e-06	6.144628300824696e-05
6.30725e-06	5.2085826478810256e-05
6.30750e-06	4.118561869996599e-05
6.30775e-06	2.8817608429841677e-05
6.30800e-06	1.5080069496591842e-05
6.30825e-06	7.578875234620952e-08
6.30850e-06	-1.609867172626279e-05
6.30875e-06	-3.334849266366691e-05
6.30900e-06	-5.157891318971367e-05
6.30925e-06	-7.069517137636979e-05
6.30950e-06	-9.05991492733727e-05
6.30975e-06	-0.00011138537718671996
6.31000e-06	-0.00013235767017348948
6.31025e-06	-0.0001540434775420493
6.31050e-06	-0.00017591224958178202
6.31075e-06	-0.0001977810216215888
6.31100e-06	-0.00021959089837308646
6.31125e-06	-0.00024126063763175805
6.31150e-06	-0.0002629303768903562
6.31175e-06	-0.00028460011614895437
6.31200e-06	-0.0003049418679996827
6.31225e-06	-0.0003249430874300002
6.31250e-06	-0.00034494430686031767
6.31275e-06	-0.00036309439802716445
6.31300e-06	-0.0003807698090997241
6.31325e-06	-0.00039623463363505266
6.31350e-06	-0.0004111326031088773
6.31375e-06	-0.0004260305725826516
6.31400e-06	-0.000441395820825327
6.31425e-06	-0.0004568808921696806
6.31450e-06	-0.0004723659635139817
6.31475e-06	-0.0004890557613396088
6.31500e-06	-0.000506054484100915
6.31525e-06	-0.0005230532068621636
6.31550e-06	-0.0005409618175478358
6.31575e-06	-0.0005591037484707017
6.31600e-06	-0.0005772456793935675
6.31625e-06	-0.0005978773958795897
6.31650e-06	-0.0006191475617203744
6.31675e-06	-0.0006404177275611591
6.31700e-06	-0.0006634109365692984
6.31725e-06	-0.0006868459811373304
6.31750e-06	-0.0007102810257053624
6.31775e-06	-0.0007362558911700653
6.31800e-06	-0.0007628820364222998
6.31825e-06	-0.0007895081816745344
6.31850e-06	-0.0008161343269268592
6.31875e-06	-0.0008427604721790939
6.31900e-06	-0.0008693866174313285
6.31925e-06	-0.0008966279300511841
6.31950e-06	-0.0009253329932555443
6.31975e-06	-0.0009540380564600016
6.32000e-06	-0.0009827431196643619
6.32025e-06	-0.001011448182868722
6.32050e-06	-0.0010401532460731795
6.32075e-06	-0.0010688583092775396
6.32100e-06	-0.0010955784556128862
6.32125e-06	-0.0011217896147837133
6.32150e-06	-0.0011480007739544515
6.32175e-06	-0.0011742119331251898
6.32200e-06	-0.001200423092296017
6.32225e-06	-0.0012266342514667553
6.32250e-06	-0.0012528454106374935
6.32275e-06	-0.0012724420689982365
6.32300e-06	-0.0012903425878051538
6.32325e-06	-0.0013082431066120713
6.32350e-06	-0.0013261436254190491
6.32375e-06	-0.0013440441442259666
6.32400e-06	-0.0013619446630329444
6.32425e-06	-0.001379845181839862
6.32450e-06	-0.0013875817983091286
6.32475e-06	-0.0013927121112538585
6.32500e-06	-0.001397842424198571
6.32525e-06	-0.0014029727371432834
6.32550e-06	-0.0014081030500880133
6.32575e-06	-0.001413233363032726
6.32600e-06	-0.0014183636759774383
6.32625e-06	-0.0014234939889221682
6.32650e-06	-0.0014286243018668805
6.32675e-06	-0.0014300228669351447
6.32700e-06	-0.001422541981591786
6.32725e-06	-0.0014150610962484526
6.32750e-06	-0.0014075802109051192
6.32775e-06	-0.0014000993255617604
6.32800e-06	-0.001392618440218427
6.32825e-06	-0.0013851375548750685
6.32850e-06	-0.001377656669531735
6.32875e-06	-0.0013701757841884017
6.32900e-06	-0.001362694898845043
6.32925e-06	-0.0013500708785099597
6.32950e-06	-0.0013361280172013025
6.32975e-06	-0.001322185155892598
6.33000e-06	-0.0013082422945839406
6.33025e-06	-0.0012942994332752833
6.33050e-06	-0.0012803565719665788
6.33075e-06	-0.0012664137106579215
6.33100e-06	-0.0012524357214079055
6.33125e-06	-0.0012383741475150293
6.33150e-06	-0.0012243125736222007
6.33175e-06	-0.001210250999729372
6.33200e-06	-0.0011961894258364957
6.33225e-06	-0.0011821278519436671
6.33250e-06	-0.0011680662780507909
6.33275e-06	-0.0011540047041579621
6.33300e-06	-0.0011420818583495493
6.33325e-06	-0.0011307074411227491
6.33350e-06	-0.0011196920188905988
6.33375e-06	-0.0011087686528282556
6.33400e-06	-0.0010937228437925084
6.33425e-06	-0.0010776199272314413
6.33450e-06	-0.0010563226324556405
6.33475e-06	-0.001033693356537557
6.33500e-06	-0.0010067295252983992
6.33525e-06	-0.000978654195106176
6.33550e-06	-0.0009463846136759499
6.33575e-06	-0.0009130395111105868
6.33600e-06	-0.0008750949502198972
6.33625e-06	-0.0008309263850656242
6.33650e-06	-0.0007854642519355655
6.33675e-06	-0.0007355549866565657
6.33700e-06	-0.0006819457374659662
6.33725e-06	-0.0006254244261164532
6.33750e-06	-0.0005662401190659491
6.33775e-06	-0.0005042267420053413
6.33800e-06	-0.0004390115808926894
6.33825e-06	-0.0003705960028591475
6.33850e-06	-0.0002993530939538071
6.33875e-06	-0.00022573132243550094
6.33900e-06	-0.00015018079953377464
6.33925e-06	-7.315157262917578e-05
6.33950e-06	4.989403277437719e-06
6.33975e-06	8.413529114230343e-05
6.34000e-06	0.00016430866406188835
6.34025e-06	0.0002452978071421782
6.34050e-06	0.00032665814727243564
6.34075e-06	0.0004078979072839946
6.34100e-06	0.000488524364672104
6.34125e-06	0.0005680448438543685
6.34150e-06	0.0006460187477628382
6.34175e-06	0.0007221684713243175
6.34200e-06	0.0007962974027315106
6.34225e-06	0.0008680622983156613
6.34250e-06	0.0009369740227269618
6.34275e-06	0.0010025138887206774
6.34300e-06	0.001064162613874292
6.34325e-06	0.0011214012519403752
6.34350e-06	0.0011737429060888309
6.34375e-06	0.001220849064779999
6.34400e-06	0.0012625751427745094
6.34425e-06	0.001298841989191326
6.34450e-06	0.0013295495109860373
6.34475e-06	0.0013545898648160415
6.34500e-06	0.001373855017262502
6.34525e-06	0.001387236934906905
6.34550e-06	0.0013946476906445545
6.34575e-06	0.0013937812829845524
6.34600e-06	0.0013911057678506558
6.34625e-06	0.0013794492625663385
6.34650e-06	0.001365489784910749
6.34675e-06	0.0013430347409727353
6.34700e-06	0.001318401200666495
6.34725e-06	0.0012857544139758261
6.34750e-06	0.0012510528109765876
6.34775e-06	0.0012089993388731055
6.34800e-06	0.0011650606457483045
6.34825e-06	0.0011147475561466536
6.34850e-06	0.001062799896333786
6.34875e-06	0.0010054731489182545
6.34900e-06	0.0009467670558041862
6.34925e-06	0.0008836750528776929
6.34950e-06	0.000819458382297267
6.34975e-06	0.00075141164419965
6.35000e-06	0.0006823827716687426
6.35025e-06	0.0006133538991376014
6.35050e-06	0.0005423444156877126
6.35075e-06	0.00047082704923743265
6.35100e-06	0.0003993096827869104
6.35125e-06	0.0003283299228072763
6.35150e-06	0.00025748801988210903
6.35175e-06	0.00018798360958413083
6.35200e-06	0.00012021006650181872
6.35225e-06	5.456233576831748e-05
6.35250e-06	-8.483806502759602e-06
6.35275e-06	-6.845386496893131e-05
6.35300e-06	-0.000124873436799194
6.35325e-06	-0.00017726817009420105
6.35350e-06	-0.00022543843628852222
6.35375e-06	-0.00027008095582575076
6.35400e-06	-0.00031243145950571533
6.35425e-06	-0.00035307224428626527
6.35450e-06	-0.00039186971416282093
6.35475e-06	-0.0004285420949370315
6.35500e-06	-0.0004628043258739179
6.35525e-06	-0.0004943713640580918
6.35550e-06	-0.0005222385319436256
6.35575e-06	-0.0005493010488359545
6.35600e-06	-0.0005739004264357446
6.35625e-06	-0.0005978681875164567
6.35650e-06	-0.0006197620564261199
6.35675e-06	-0.0006411241224622825
6.35700e-06	-0.0006598861038961153
6.35725e-06	-0.0006779813522749285
6.35750e-06	-0.000692887696003829
6.35775e-06	-0.0007069763170564319
6.35800e-06	-0.0007210649381090826
6.35825e-06	-0.0007330038668042931
6.35850e-06	-0.000744391555377743
6.35875e-06	-0.0007557792439512314
6.35900e-06	-0.0007647672547509396
6.35925e-06	-0.0007731399223069473
6.35950e-06	-0.0007815125898629834
6.35975e-06	-0.0007870443124548658
6.36000e-06	-0.000791847538784253
6.36025e-06	-0.0007966507651136567
6.36050e-06	-0.000801453991443044
6.36075e-06	-0.0008062572177724313
6.36100e-06	-0.0008110604441018349
6.36125e-06	-0.0008158636704312223
6.36150e-06	-0.0008198910643911075
6.36175e-06	-0.0008220724158864002
6.36200e-06	-0.0008242537673816855
6.36225e-06	-0.0008264351188769783
6.36250e-06	-0.0008286164703722636
6.36275e-06	-0.0008307978218675489
6.36300e-06	-0.0008329791733628416
6.36325e-06	-0.000835160524858127
6.36350e-06	-0.0008376981004017796
6.36375e-06	-0.0008403270215684984
6.36400e-06	-0.0008429559427352082
6.36425e-06	-0.000845584863901918
6.36450e-06	-0.0008482137850686368
6.36475e-06	-0.0008508427062353467
6.36500e-06	-0.0008534716274020565
6.36525e-06	-0.0008561005485687752
6.36550e-06	-0.0008587294697354851
6.36575e-06	-0.000861358390902195
6.36600e-06	-0.0008639873120689137
6.36625e-06	-0.000867445873837471
6.36650e-06	-0.000872878511245866
6.36675e-06	-0.0008783111486542425
6.36700e-06	-0.0008837437860626191
6.36725e-06	-0.000889176423471014
6.36750e-06	-0.0008946090608793905
6.36775e-06	-0.0009000416982877671
6.36800e-06	-0.000905474335696162
6.36825e-06	-0.0009109069731045385
6.36850e-06	-0.0009163396105129151
6.36875e-06	-0.0009217722479213101
6.36900e-06	-0.0009272048853296866
6.36925e-06	-0.0009337742552867348
6.36950e-06	-0.0009406351146684155
6.36975e-06	-0.0009474959740500728
6.37000e-06	-0.0009543568334317303
6.37025e-06	-0.0009612176928134109
6.37050e-06	-0.0009680785521950684
6.37075e-06	-0.000974939411576749
6.37100e-06	-0.0009816168161112864
6.37125e-06	-0.0009878577018160408
6.37150e-06	-0.0009940985875208164
6.37175e-06	-0.0010003394732255708
6.37200e-06	-0.001006580358930325
6.37225e-06	-0.0010128212446351007
6.37250e-06	-0.001019062130339855
6.37275e-06	-0.0010253030160446094
6.37300e-06	-0.001030502468805421
6.37325e-06	-0.0010354348695759063
6.37350e-06	-0.0010381024222407339
6.37375e-06	-0.0010401892056895962
6.37400e-06	-0.0010422759891384511
6.37425e-06	-0.0010388881722706849
6.37450e-06	-0.0010340965176242722
6.37475e-06	-0.0010248316713772502
6.37500e-06	-0.0010144197760313183
6.37525e-06	-0.0009999020694316588
6.37550e-06	-0.0009843315201373062
6.37575e-06	-0.0009639777065232356
6.37600e-06	-0.0009423973326548894
6.37625e-06	-0.0009152579798983779
6.37650e-06	-0.0008866931523816062
6.37675e-06	-0.0008532204384603629
6.37700e-06	-0.000818489207761837
6.37725e-06	-0.000779596363838656
6.37750e-06	-0.0007396363680641037
6.37775e-06	-0.0006956065114959104
6.37800e-06	-0.0006505330309176182
6.37825e-06	-0.0006014199185087893
6.37850e-06	-0.0005512709336258087
6.37875e-06	-0.0004980062923827511
6.37900e-06	-0.00044394271133610277
6.37925e-06	-0.0003877707799338528
6.37950e-06	-0.00033105820963435904
6.37975e-06	-0.0002978344304734655
6.38000e-06	-0.0023030184465809905
6.38025e-06	-0.012521105650512945
6.38050e-06	-0.014331423772220308
6.38075e-06	-0.012203854314880825
6.38100e-06	-0.009087635273006486
6.38125e-06	-0.001537598644135637
6.38150e-06	0.002079680920303475
6.38175e-06	0.0015830783016907097
6.38200e-06	-9.138000891551119e-05
6.38225e-06	-0.005659917708657118
6.38250e-06	-0.008009198563120485
6.38275e-06	-0.006484804717529627
6.38300e-06	-0.004171291961071061
6.38325e-06	-0.0002460399499403769
6.38350e-06	0.0026008092266484057
6.38375e-06	0.0028927245277633774
6.38400e-06	0.001319796726121945
6.38425e-06	-0.001414581056494325
6.38450e-06	-0.0033642735871015996
6.38475e-06	-0.003076343050080684
6.38500e-06	-0.0014624353097780927
6.38525e-06	0.0008308630994757658
6.38550e-06	0.00259322904776328
6.38575e-06	0.00275900350487095
6.38600e-06	0.0017600524726333411
6.38625e-06	3.660653730334408e-05
6.38650e-06	-0.0011926666887433523
6.38675e-06	-0.0010180829692212556
6.38700e-06	-1.1100991495977116e-05
6.38725e-06	0.0014229353944286754
6.38750e-06	0.0025256440846072414
6.38775e-06	0.0026293531321673865
6.38800e-06	0.002004480154778799
6.38825e-06	0.0009266764108572173
6.38850e-06	0.00015917553337742765
6.38875e-06	0.00027161767958048524
6.38900e-06	0.0009058596639667645
6.38925e-06	0.0018078511732928983
6.38950e-06	0.002502441281386126
6.38975e-06	0.0025713484304900956
6.39000e-06	0.002183926726485006
6.39025e-06	0.0015127991442274989
6.39050e-06	0.0010359841534156283
6.39075e-06	0.0011101994948321382
6.39100e-06	0.0015109983016578532
6.39125e-06	0.0020791574735748207
6.39150e-06	0.0025169806113426213
6.39175e-06	0.002562421431149368
6.39200e-06	0.002321537076269286
6.39225e-06	0.0019024240690297897
6.39250e-06	0.0016044609950505327
6.39275e-06	0.0016510209306690724
6.39300e-06	0.0019014334900669919
6.39325e-06	0.0022558826458870143
6.39350e-06	0.002527647352960297
6.39375e-06	0.002551715000293096
6.39400e-06	0.0023933035285900284
