Time(s)	Current(A)
1.40000e-05	0.009957724043963119
1.40003e-05	0.009990313531370417
1.40005e-05	0.010022903018777935
1.40008e-05	0.010055492506185454
1.40010e-05	0.010088081993592752
1.40013e-05	0.01012067148100027
1.40015e-05	0.010153260968407789
1.40018e-05	0.010185850455815087
1.40020e-05	0.010218439943222605
1.40023e-05	0.010251029430630124
1.40025e-05	0.01028361891803742
1.40028e-05	0.01031086613190594
1.40030e-05	0.010334464388224406
1.40033e-05	0.01035806264454271
1.40035e-05	0.010381660900861176
1.40038e-05	0.010405259157179643
1.40040e-05	0.010428857413497947
1.40043e-05	0.010452455669816414
1.40045e-05	0.01047605392613488
1.40048e-05	0.010499652182453184
1.40050e-05	0.01052325043877165
1.40053e-05	0.010546848695090115
1.40055e-05	0.010568463334694932
1.40058e-05	0.010570996230047305
1.40060e-05	0.010573529125399697
1.40063e-05	0.010576062020752088
1.40065e-05	0.010578594916104462
1.40068e-05	0.010581127811456854
1.40070e-05	0.010583660706809245
1.40073e-05	0.010586193602161618
1.40075e-05	0.01058872649751401
1.40078e-05	0.010591259392866401
1.40080e-05	0.010593792288218775
1.40083e-05	0.010596325183571167
1.40085e-05	0.010598858078923558
1.40088e-05	0.010601390974275931
1.40090e-05	0.010603923869628324
1.40093e-05	0.010606456764980714
1.40095e-05	0.010608989660333088
1.40098e-05	0.010611522555685479
1.40100e-05	0.010614055451037871
1.40103e-05	0.010610073753868013
1.40105e-05	0.01060164236474561
1.40108e-05	0.01059321097562321
1.40110e-05	0.010584779586500864
1.40113e-05	0.010576348197378462
1.40115e-05	0.01056791680825606
1.40118e-05	0.010559485419133714
1.40120e-05	0.010551054030011312
1.40123e-05	0.010542622640888911
1.40125e-05	0.010534191251766566
1.40128e-05	0.010525759862644164
1.40130e-05	0.010517328473521761
1.40133e-05	0.010508897084399416
1.40135e-05	0.010500465695277014
1.40138e-05	0.010492034306154613
1.40140e-05	0.01048360291703221
1.40143e-05	0.010475171527909865
1.40145e-05	0.010466740138787463
1.40148e-05	0.01045809487209966
1.40150e-05	0.010447392173157578
1.40153e-05	0.010436689474215425
1.40155e-05	0.01042598677527327
1.40158e-05	0.01041528407633119
1.40160e-05	0.010404581377389036
1.40163e-05	0.010393878678446882
1.40165e-05	0.0103831759795048
1.40168e-05	0.010372473280562646
1.40170e-05	0.010361770581620492
1.40173e-05	0.010351067882678412
1.40175e-05	0.010340365183736258
1.40178e-05	0.010329662484794104
1.40180e-05	0.010318959785852023
1.40183e-05	0.01030825708690987
1.40185e-05	0.010297554387967716
1.40188e-05	0.010283549634356265
1.40190e-05	0.010267289463227407
1.40193e-05	0.01025102929209855
1.40195e-05	0.010234769120969803
1.40198e-05	0.010218508949840945
1.40200e-05	0.010202248778712087
1.40203e-05	0.01018598860758334
1.40205e-05	0.010169728436454483
1.40208e-05	0.010153468265325625
1.40210e-05	0.010137208094196878
1.40213e-05	0.01012094792306802
1.40215e-05	0.010104687751939163
1.40218e-05	0.010088427580810416
1.40220e-05	0.010072167409681558
1.40223e-05	0.0100559072385527
1.40225e-05	0.010040093463056697
1.40228e-05	0.010028573867608304
1.40230e-05	0.010017054272159832
1.40233e-05	0.010005534676711362
1.40235e-05	0.009994015081262969
1.40238e-05	0.009982495485814497
1.40240e-05	0.009970975890366027
1.40243e-05	0.009959456294917634
1.40245e-05	0.009947936699469162
1.40248e-05	0.00993641710402069
1.40250e-05	0.009924897508572299
1.40253e-05	0.009913377913123828
1.40255e-05	0.009901858317675356
1.40258e-05	0.009890338722226964
1.40260e-05	0.009880128161375193
1.40263e-05	0.009882510085382814
1.40265e-05	0.00988489200939042
1.40268e-05	0.009887273933398043
1.40270e-05	0.009889655857405666
1.40273e-05	0.009892037781413272
1.40275e-05	0.009894419705420895
1.40278e-05	0.009896801629428516
1.40280e-05	0.009899183553436124
1.40283e-05	0.009901565477443745
1.40285e-05	0.009903947401451368
1.40288e-05	0.009906329325458974
1.40290e-05	0.009908711249466597
1.40293e-05	0.009911093173474219
1.40295e-05	0.009914305032419253
1.40298e-05	0.009925500594134795
1.40300e-05	0.009936696155850338
1.40303e-05	0.009947891717565804
1.40305e-05	0.009959087279281346
1.40308e-05	0.009970282840996887
1.40310e-05	0.00998147840271243
1.40313e-05	0.009992673964427896
1.40315e-05	0.010003869526143438
1.40318e-05	0.01001506508785898
1.40320e-05	0.010026260649574447
1.40323e-05	0.010036693629687753
1.40325e-05	0.01004660574019808
1.40328e-05	0.01005651785070834
1.40330e-05	0.010066429961218665
1.40333e-05	0.010076342071728993
1.40335e-05	0.010086254182239253
1.40338e-05	0.010096166292749578
1.40340e-05	0.010106078403259906
1.40343e-05	0.010115990513770165
1.40345e-05	0.010125902624280491
1.40348e-05	0.010134101672979063
1.40350e-05	0.010125821627087044
1.40353e-05	0.01011754158119497
1.40355e-05	0.010109261535302894
1.40358e-05	0.010100981489410877
1.40360e-05	0.0100927014435188
1.40363e-05	0.010084421397626726
1.40365e-05	0.010076141351734708
1.40368e-05	0.010067861305842633
1.40370e-05	0.010059581259950557
1.40373e-05	0.010035546380230619
1.40375e-05	0.010000750404231765
1.40378e-05	0.009965954428232912
1.40380e-05	0.009931158452234296
1.40383e-05	0.009896362476235442
1.40385e-05	0.009861566500236589
1.40388e-05	0.009826770524237971
1.40390e-05	0.00979197454823912
1.40393e-05	0.009757178572240266
1.40395e-05	0.009720725690511134
1.40398e-05	0.009668333917333025
1.40400e-05	0.00961594214415456
1.40403e-05	0.009563550370976096
1.40405e-05	0.009511158597797987
1.40408e-05	0.009458766824619524
1.40410e-05	0.00940637505144106
1.40413e-05	0.00935398327826295
1.40415e-05	0.009301591505084488
1.40418e-05	0.009249199731906023
1.40420e-05	0.009196807958727914
1.40423e-05	0.009148404534759444
1.40425e-05	0.009102725291211868
1.40428e-05	0.009057046047664602
1.40430e-05	0.009011366804117026
1.40433e-05	0.00896568756056945
1.40435e-05	0.008920008317022183
1.40438e-05	0.008874329073474609
1.40440e-05	0.008828649829927033
1.40443e-05	0.008782970586379765
1.40445e-05	0.008737291342832191
1.40448e-05	0.008694729751517206
1.40450e-05	0.008682158955473024
1.40453e-05	0.008669588159428757
1.40455e-05	0.008657017363384489
1.40458e-05	0.008644446567340307
1.40460e-05	0.00863187577129604
1.40463e-05	0.008619304975251773
1.40465e-05	0.008606734179207591
1.40468e-05	0.008594163383163324
1.40470e-05	0.008581592587119057
1.40473e-05	0.00859074492364112
1.40475e-05	0.00861473491085765
1.40478e-05	0.008638724898074183
1.40480e-05	0.008662714885290714
1.40483e-05	0.008686704872507084
1.40485e-05	0.008710694859723617
1.40488e-05	0.008734684846940148
1.40490e-05	0.008758674834156517
1.40493e-05	0.00878266482137305
1.40495e-05	0.008808863667444546
1.40498e-05	0.008856311013595101
1.40500e-05	0.008903758359745976
1.40503e-05	0.00895120570589685
1.40505e-05	0.008998653052047403
1.40508e-05	0.00904610039819828
1.40510e-05	0.009093547744349154
1.40513e-05	0.009140995090499707
1.40515e-05	0.009188442436650584
1.40518e-05	0.009235889782801458
1.40520e-05	0.009283071588610059
1.40523e-05	0.009327698983137254
1.40525e-05	0.009372326377664452
1.40528e-05	0.009416953772191346
1.40530e-05	0.009461581166718544
1.40533e-05	0.009506208561245741
1.40535e-05	0.009550835955772635
1.40538e-05	0.009595463350299831
1.40540e-05	0.009640090744827029
1.40543e-05	0.009684718139353923
1.40545e-05	0.009726455442226441
1.40548e-05	0.009740391008174946
1.40550e-05	0.009754326574123357
1.40553e-05	0.009768262140071862
1.40555e-05	0.009782197706020367
1.40558e-05	0.009796133271968778
1.40560e-05	0.009810068837917282
1.40563e-05	0.009824004403865789
1.40565e-05	0.009837939969814294
1.40568e-05	0.009851875535762705
1.40570e-05	0.009862443539073097
1.40573e-05	0.00984061669068535
1.40575e-05	0.009818789842297749
1.40578e-05	0.009796962993910002
1.40580e-05	0.009775136145522254
1.40583e-05	0.009753309297134654
1.40585e-05	0.009731482448746906
1.40588e-05	0.009709655600359158
1.40590e-05	0.009687828751971559
1.40593e-05	0.00966600190358381
1.40595e-05	0.009642042662587906
1.40598e-05	0.009597570501794722
1.40600e-05	0.009553098341001235
1.40603e-05	0.009508626180207749
1.40605e-05	0.009464154019414564
1.40608e-05	0.009419681858621078
1.40610e-05	0.009375209697827592
1.40613e-05	0.009330737537034407
1.40615e-05	0.009286265376240922
1.40618e-05	0.009241793215447436
1.40620e-05	0.009197321054654251
1.40623e-05	0.009154981698106265
1.40625e-05	0.009114099120607512
1.40628e-05	0.009073216543109035
1.40630e-05	0.009032333965610281
1.40633e-05	0.008991451388111527
1.40635e-05	0.008950568810613051
1.40638e-05	0.008909686233114297
1.40640e-05	0.008868803655615543
1.40643e-05	0.008827921078117066
1.40645e-05	0.008787038500618313
1.40648e-05	0.00874818180208541
1.40650e-05	0.008728813396941947
1.40653e-05	0.008709444991798614
1.40655e-05	0.00869007658665515
1.40658e-05	0.008670708181511687
1.40660e-05	0.008651339776368354
1.40663e-05	0.008633787959254615
1.40665e-05	0.00863371112514221
1.40668e-05	0.008633634291029804
1.40670e-05	0.008633557456917398
1.40673e-05	0.008633480622804992
1.40675e-05	0.008633403788692586
1.40678e-05	0.008634330174217207
1.40680e-05	0.008646286024724153
1.40683e-05	0.008671505673152566
1.40685e-05	0.008696725321581153
1.40688e-05	0.008721944970009738
1.40690e-05	0.008747164618438151
1.40693e-05	0.008772384266866736
1.40695e-05	0.008797603915295322
1.40698e-05	0.008822823563723737
1.40700e-05	0.008848043212152322
1.40703e-05	0.008873262860580907
1.40705e-05	0.008898482509009322
1.40708e-05	0.008923702157437907
1.40710e-05	0.008954531087218337
1.40713e-05	0.008989191350124135
1.40715e-05	0.009023851613030168
1.40718e-05	0.0090585118759362
1.40720e-05	0.009093172138841999
1.40723e-05	0.009127832401748031
1.40725e-05	0.009162492664654066
1.40728e-05	0.009197152927559862
1.40730e-05	0.009231813190465897
1.40733e-05	0.00926647345337193
1.40735e-05	0.009301133716277962
1.40738e-05	0.009333861623501674
1.40740e-05	0.009348000900741327
1.40743e-05	0.00936214017798098
1.40745e-05	0.009376279455220538
1.40748e-05	0.009390418732460193
1.40750e-05	0.009404558009699845
1.40753e-05	0.009418697286939403
1.40755e-05	0.009432836564179056
1.40758e-05	0.009446975841418709
1.40760e-05	0.009461115118658266
1.40763e-05	0.009475254395897921
1.40765e-05	0.009489393673137574
1.40768e-05	0.009503532950377131
1.40770e-05	0.009517672227616784
1.40773e-05	0.009531811504856437
1.40775e-05	0.009543617533835654
1.40778e-05	0.009532978477272266
1.40780e-05	0.009522339420708879
1.40783e-05	0.009511700364145564
1.40785e-05	0.009501061307582177
1.40788e-05	0.00949042225101879
1.40790e-05	0.009479783194455475
1.40793e-05	0.009469144137892087
1.40795e-05	0.009458505081328701
1.40798e-05	0.009447866024765387
1.40800e-05	0.009437226968202
1.40803e-05	0.009426587911638612
1.40805e-05	0.009415948855075297
1.40808e-05	0.00940530979851191
1.40810e-05	0.009394670741948523
1.40813e-05	0.009383404881694039
1.40815e-05	0.009366109374826544
1.40818e-05	0.009348813867959048
1.40820e-05	0.009331518361091553
1.40823e-05	0.009314222854224175
1.40825e-05	0.00929692734735668
1.40828e-05	0.009279631840489183
1.40830e-05	0.009262336333621805
1.40833e-05	0.00924504082675431
1.40835e-05	0.009227745319886814
1.40838e-05	0.009210449813019436
1.40840e-05	0.009193691758482682
1.40843e-05	0.009182103819680872
1.40845e-05	0.009170515880879141
1.40848e-05	0.009158927942077334
1.40850e-05	0.009147340003275524
1.40853e-05	0.009135752064473795
1.40855e-05	0.009124164125671986
1.40858e-05	0.009112576186870176
1.40860e-05	0.009100988248068447
1.40863e-05	0.009089400309266638
1.40865e-05	0.009077812370464828
1.40868e-05	0.00906665258151163
1.40870e-05	0.009059611454145453
1.40873e-05	0.009052570326779275
1.40875e-05	0.009045529199413144
1.40878e-05	0.009038488072046966
1.40880e-05	0.009031446944680787
1.40883e-05	0.009024405817314658
1.40885e-05	0.009017364689948478
1.40888e-05	0.0090103235625823
1.40890e-05	0.00900328243521617
1.40893e-05	0.008996241307849992
1.40895e-05	0.008989200180483815
1.40898e-05	0.008982159053117684
1.40900e-05	0.008975117925751506
1.40903e-05	0.008968076798385327
1.40905e-05	0.008961035671019149
1.40908e-05	0.008953994543653018
1.40910e-05	0.008947173806160193
1.40913e-05	0.008942473147207704
1.40915e-05	0.008937772488255247
1.40918e-05	0.00893307182930276
1.40920e-05	0.00892837117035027
1.40923e-05	0.008923670511397813
1.40925e-05	0.008918969852445325
1.40928e-05	0.008914269193492835
1.40930e-05	0.008909568534540379
1.40933e-05	0.00890486787558789
1.40935e-05	0.008900167216635403
1.40938e-05	0.008895466557682944
1.40940e-05	0.008890765898730457
1.40943e-05	0.008886065239777969
1.40945e-05	0.008881364580825512
1.40948e-05	0.008876663921873022
1.40950e-05	0.008871963262920534
1.40953e-05	0.008866494546873712
1.40955e-05	0.00885363737263898
1.40958e-05	0.008840780198404249
1.40960e-05	0.008827923024169605
1.40963e-05	0.008815065849934875
1.40965e-05	0.008802208675700144
1.40968e-05	0.0087893515014655
1.40970e-05	0.00877649432723077
1.40973e-05	0.008763637152996039
1.40975e-05	0.008750779978761395
1.40978e-05	0.008737922804526664
1.40980e-05	0.008725065630291934
1.40983e-05	0.00871220845605729
1.40985e-05	0.00869935128182256
1.40988e-05	0.00868552175759898
1.40990e-05	0.008662338544318198
1.40993e-05	0.008639155331037577
1.40995e-05	0.008615972117756797
1.40998e-05	0.008592788904476017
1.41000e-05	0.008569605691195394
1.41003e-05	0.008546422477914614
1.41005e-05	0.008523239264633834
1.41008e-05	0.00850005605135321
1.41010e-05	0.00847687283807243
1.41013e-05	0.008453689624791651
1.41015e-05	0.008430506411511027
1.41018e-05	0.008407323198230248
1.41020e-05	0.008384139984949468
1.41023e-05	0.008361319841165981
1.41025e-05	0.00834199230726834
1.41028e-05	0.008322664773370701
1.41030e-05	0.008303337239473192
1.41033e-05	0.008284009705575553
1.41035e-05	0.008264682171677914
1.41038e-05	0.008245354637780405
1.41040e-05	0.008226027103882766
1.41043e-05	0.008206699569985126
1.41045e-05	0.008187372036087617
1.41048e-05	0.008168044502189978
1.41050e-05	0.008148716968292337
1.41053e-05	0.008149807195388423
1.41055e-05	0.008151652630749733
1.41058e-05	0.008153498066111042
1.41060e-05	0.00815534350147234
1.41063e-05	0.00815718893683365
1.41065e-05	0.00815903437219496
1.41068e-05	0.008160879807556257
1.41070e-05	0.008162725242917567
1.41073e-05	0.008164570678278877
1.41075e-05	0.008166416113640187
1.41078e-05	0.008168261549001484
1.41080e-05	0.008180075949610144
1.41083e-05	0.0035783070193663308
1.41085e-05	-0.018315316159977373
1.41088e-05	-0.01160897333025514
1.41090e-05	-0.006541685532054114
1.41093e-05	-0.00013786536185733276
1.41095e-05	0.01717059041153131
1.41098e-05	0.015537404968632618
1.41100e-05	0.015200073113717997
1.41103e-05	0.009972788636852876
1.41105e-05	0.0020765427196023515
1.41108e-05	-0.00036959148080140027
1.41110e-05	0.0014136409841009486
1.41113e-05	0.0060427320366671505
1.41115e-05	0.012049232219854222
1.41118e-05	0.014502230375584084
1.41120e-05	0.0141124353845801
1.41123e-05	0.010689031389024186
1.41125e-05	0.005644758778217046
1.41128e-05	0.00403918801983607
1.41130e-05	0.0051007905982223545
1.41133e-05	0.007957793841570563
1.41135e-05	0.01168652345333453
1.41138e-05	0.013195516930789703
1.41140e-05	0.012928020284776593
1.41143e-05	0.0107630576777102
1.41145e-05	0.007584530931452503
1.41148e-05	0.006561163368224199
1.41150e-05	0.007209474870858289
1.41153e-05	0.008983167123197133
1.41155e-05	0.011303308244715395
1.41158e-05	0.012233224877704094
1.41160e-05	0.012050517825715132
1.41163e-05	0.010679401463887649
1.41165e-05	0.008673557595671188
1.41168e-05	0.008017791406463332
1.41170e-05	0.00840911367206476
1.41173e-05	0.009505232084304626
1.41175e-05	0.010943455690213455
1.41178e-05	0.011510688031357802
1.41180e-05	0.011380902189923606
1.41183e-05	0.0105067135571036
1.41185e-05	0.009235020793265672
1.41188e-05	0.008809109831282838
1.41190e-05	0.009039146672458568
1.41193e-05	0.00971069958633449
1.41195e-05	0.010596579939846236
1.41198e-05	0.01093695127970818
1.41200e-05	0.010840867252205129
1.41203e-05	0.010278720782153802
1.41205e-05	0.009467873131927021
1.41208e-05	0.009187138505363252
1.41210e-05	0.009317594882954198
1.41213e-05	0.009724923377756768
1.41215e-05	0.01026683150002603
1.41218e-05	0.010467399695895134
1.41220e-05	0.01039500197566269
1.41223e-05	0.010031152222723974
1.41225e-05	0.009512060634003484
1.41228e-05	0.009325601197186754
1.41230e-05	0.009397288275105466
1.41233e-05	0.009643000894674765
1.41235e-05	0.00997362703770461
1.41238e-05	0.010091095096984125
1.41240e-05	0.01003828520909667
1.41243e-05	0.009803668160341165
1.41245e-05	0.009472593555360155
1.41248e-05	0.009350562436460628
1.41250e-05	0.009390710521216941
1.41253e-05	0.009540211292752366
1.41255e-05	0.009743208000255604
1.41258e-05	0.00981297514600131
1.41260e-05	0.009776370007716783
1.41263e-05	0.009626165830048838
1.41265e-05	0.009415817466002637
1.41268e-05	0.009336672073060766
1.41270e-05	0.009359349445706058
1.41273e-05	0.009450735934928768
1.41275e-05	0.00957582232661634
1.41278e-05	0.00961763219408515
1.41280e-05	0.009592981233483046
1.41283e-05	0.009497333793490837
1.41285e-05	0.00936416441864447
1.41288e-05	0.00931331518046192
1.41290e-05	0.009326361564292274
1.41293e-05	0.009382541006780057
1.41295e-05	0.009459907681262994
1.41298e-05	0.009485172855650483
1.41300e-05	0.009468860520908015
1.41303e-05	0.009408118452448835
1.41305e-05	0.009323902837177475
1.41308e-05	0.009291267998409292
1.41310e-05	0.009298653974714874
1.41313e-05	0.009333038112453102
1.41315e-05	0.00938065587467851
1.41318e-05	0.009395586557123843
1.41320e-05	0.009384410398291432
1.41323e-05	0.009345329525876297
1.41325e-05	0.009291457827642102
1.41328e-05	0.009269794239943502
1.41330e-05	0.009273081373780362
1.41333e-05	0.009293143648870884
1.41335e-05	0.009321345824349335
1.41338e-05	0.009328908849555718
1.41340e-05	0.009319941875827258
1.41343e-05	0.009293305094072087
1.41345e-05	0.009257239042549053
1.41348e-05	0.009241395583633264
1.41350e-05	0.009241570173095659
1.41353e-05	0.00925282147911664
1.41355e-05	0.009269735499389633
1.41358e-05	0.009274255929709
1.41360e-05	0.009268927761511425
1.41363e-05	0.009254354333854391
1.41365e-05	0.009239121621823946
1.41368e-05	0.0092238889097935
1.41370e-05	0.00922543218565991
1.41373e-05	0.009234493271415057
1.41375e-05	0.00924403373986944
1.41378e-05	0.009253574208323758
1.41380e-05	0.009253760766413172
1.41383e-05	0.00924824188299925
1.41385e-05	0.009242339160521364
1.41388e-05	0.009236436438043437
1.41390e-05	0.009241323961801544
1.41393e-05	0.009251088696809967
1.41395e-05	0.009261164986185611
1.41398e-05	0.009271241275561257
1.41400e-05	0.009275507942324072
1.41403e-05	0.009276123716658105
1.41405e-05	0.009276492830838512
1.41408e-05	0.009276861945018916
1.41410e-05	0.009283812319606
1.41413e-05	0.009293491517239311
1.41415e-05	0.009303341805670115
1.41418e-05	0.009313192094100989
1.41420e-05	0.009317686893405806
1.41423e-05	0.009321769345911647
1.41425e-05	0.009326879370913246
1.41428e-05	0.009332068514034503
1.41430e-05	0.009337257657155758
1.41433e-05	0.009342446800276981
1.41435e-05	0.009347635943398236
1.41438e-05	0.009350400178000845
1.41440e-05	0.00935297770635834
1.41443e-05	0.009355555234715854
1.41445e-05	0.009358132763073367
1.41448e-05	0.009360710291430862
1.41450e-05	0.00935269026806844
1.41453e-05	0.00934385428440334
1.41455e-05	0.009335018300738301
1.41458e-05	0.009326182317073203
1.41460e-05	0.009317346333408106
1.41463e-05	0.009308510349743067
1.41465e-05	0.009299674366077969
1.41468e-05	0.00929083838241287
1.41470e-05	0.009282002398747831
1.41473e-05	0.009273166415082733
1.41475e-05	0.009264330431417635
1.41478e-05	0.009247431775248893
1.41480e-05	0.00921978016013197
1.41483e-05	0.009192128545015046
1.41485e-05	0.00916447692989831
1.41488e-05	0.009136825314781388
1.41490e-05	0.009109173699664463
1.41493e-05	0.009081522084547728
1.41495e-05	0.009053870469430804
1.41498e-05	0.00902621885431388
1.41500e-05	0.008998567239197144
1.41503e-05	0.008970915624080221
1.41505e-05	0.008943264008963298
1.41508e-05	0.008909064415027276
1.41510e-05	0.008874360658344937
1.41513e-05	0.008839656901662362
1.41515e-05	0.008804953144979788
1.41518e-05	0.008770249388297447
