Time(s)	Current(A)
3.00000e-06	0.0014005135212908596
3.00025e-06	0.0014221301720810497
3.00050e-06	0.0014417809154239857
3.00075e-06	0.0014614316587668885
3.00100e-06	0.0014810824021098245
3.00125e-06	0.0015007331454527607
3.00150e-06	0.0015223776324027945
3.00175e-06	0.0015460980843168943
3.00200e-06	0.001569818536230994
3.00225e-06	0.0015935389881450938
3.00250e-06	0.0016172594400591532
3.00275e-06	0.001640979891973253
3.00300e-06	0.0016647003438873525
3.00325e-06	0.0016884207958014121
3.00350e-06	0.0017121412477155119
3.00375e-06	0.0017358616996296114
3.00400e-06	0.0017595821515437112
3.00425e-06	0.0017833026034577708
3.00450e-06	0.0018141080299757634
3.00475e-06	0.0018449857566142079
3.00500e-06	0.0018758634832526
3.00525e-06	0.0019067412098910444
3.00550e-06	0.0019376189365294888
3.00575e-06	0.001968496663167881
3.00600e-06	0.001999374389806325
3.00625e-06	0.00203025211644477
3.00650e-06	0.002061129843083214
3.00675e-06	0.002092007569721606
3.00700e-06	0.002122885296360051
3.00725e-06	0.0021535526567822145
3.00750e-06	0.002184000975551694
3.00775e-06	0.002214449294321225
3.00800e-06	0.0022448976130907557
3.00825e-06	0.0022753459318602866
3.00850e-06	0.0023057942506297664
3.00875e-06	0.0023362425693992973
3.00900e-06	0.0023666908881688283
3.00925e-06	0.002387662384767036
3.00950e-06	0.002408537173130813
3.00975e-06	0.00242941196149459
3.01000e-06	0.0024502867498583315
3.01025e-06	0.0024711615382221083
3.01050e-06	0.0024920363265858855
3.01075e-06	0.0025129111149496623
3.01100e-06	0.002526672129355393
3.01125e-06	0.0025330260000104997
3.01150e-06	0.0025393798706656065
3.01175e-06	0.0025408554417979488
3.01200e-06	0.002537251533875043
3.01225e-06	0.0025336476259521373
3.01250e-06	0.00252484950103844
3.01275e-06	0.002510642951264842
3.01300e-06	0.0024964364014912204
3.01325e-06	0.002477122551002166
3.01350e-06	0.0024524907763283487
3.01375e-06	0.002427859001654489
3.01400e-06	0.002396498425029753
3.01425e-06	0.0023581315527856665
3.01450e-06	0.0023197646805415153
3.01475e-06	0.002281397808297364
3.01500e-06	0.002243030936053213
3.01525e-06	0.0022046640638091262
3.01550e-06	0.002166297191564975
3.01575e-06	0.002115461972589757
3.01600e-06	0.002064499517735541
3.01625e-06	0.0020135370628812385
3.01650e-06	0.001962574608026936
3.01675e-06	0.0019116121531726335
3.01700e-06	0.0018606496983184174
3.01725e-06	0.0018084257841345258
3.01750e-06	0.001754888388436431
3.01775e-06	0.001701350992738427
3.01800e-06	0.001647813597040332
3.01825e-06	0.0015942762013422373
3.01850e-06	0.0015407388056442332
3.01875e-06	0.0014942942654629732
3.01900e-06	0.001447922105824778
3.01925e-06	0.0014015499461865826
3.01950e-06	0.001355177786548466
3.01975e-06	0.0013088056269102708
3.02000e-06	0.001267915094533532
3.02025e-06	0.0012327322499965918
3.02050e-06	0.001197549405459592
3.02075e-06	0.0011646583978628838
3.02100e-06	0.0011341537418386065
3.02125e-06	0.0011036490858143812
3.02150e-06	0.001075277167362847
3.02175e-06	0.0010491259399085027
3.02200e-06	0.0010229747124542025
3.02225e-06	0.0009991572972542133
3.02250e-06	0.0009777699399894561
3.02275e-06	0.0009563825827247351
3.02300e-06	0.0009372329737956599
3.02325e-06	0.0009204133972374685
3.02350e-06	0.0009035938206792772
3.02375e-06	0.0008867742441211143
3.02400e-06	0.000869954667562923
3.02425e-06	0.0008531350910047316
3.02450e-06	0.0008363155144465688
3.02475e-06	0.0008194959378883775
3.02500e-06	0.0008053722344316448
3.02525e-06	0.0007940555810323823
3.02550e-06	0.0007827389276331389
3.02575e-06	0.0007714222742338763
3.02600e-06	0.0007601056208346137
3.02625e-06	0.0007487889674353703
3.02650e-06	0.0007374723140361077
3.02675e-06	0.0007261556606368452
3.02700e-06	0.0007162846328937379
3.02725e-06	0.0007079188479526649
3.02750e-06	0.0006995530630115917
3.02775e-06	0.0006911872780705187
3.02800e-06	0.0006828214931294597
3.02825e-06	0.0006744557081883866
3.02850e-06	0.000668107868812605
3.02875e-06	0.0006617806219888452
3.02900e-06	0.0006554533751650747
3.02925e-06	0.0006491261283413043
3.02950e-06	0.0006427988815175339
3.02975e-06	0.0006370522962295892
3.03000e-06	0.0006319103187759804
3.03025e-06	0.000627929306649858
3.03050e-06	0.0006251571376950259
3.03075e-06	0.000624843361939672
3.03100e-06	0.0006290974195657358
3.03125e-06	0.000637356186135686
3.03150e-06	0.0006494272294745383
3.03175e-06	0.0006651180841874958
3.03200e-06	0.000684236345439382
3.03225e-06	0.0007067448189272653
3.03250e-06	0.0007330560766611274
3.03275e-06	0.0007638424609778978
3.03300e-06	0.0007994098232647208
3.03325e-06	0.0008405746214689704
3.03350e-06	0.0008850370380228403
3.03375e-06	0.0009331652368885277
3.03400e-06	0.0009851103937718881
3.03425e-06	0.0010403377236514956
3.03450e-06	0.001098982582306084
3.03475e-06	0.0011611099377212555
3.03500e-06	0.0012268634069649011
3.03525e-06	0.0012960933561273337
3.03550e-06	0.0013689431541434604
3.03575e-06	0.0014417929521597106
3.03600e-06	0.0015178207833303778
3.03625e-06	0.001597157708740112
3.03650e-06	0.0016764946341497119
3.03675e-06	0.001755831559559446
3.03700e-06	0.0018351684849691804
3.03725e-06	0.0019150293033612703
3.03750e-06	0.0019954356199173066
3.03775e-06	0.002075841936473343
3.03800e-06	0.0021562482530293795
3.03825e-06	0.00223665456958528
3.03850e-06	0.0023077433587673974
3.03875e-06	0.0023691303686860874
3.03900e-06	0.002430517378604673
3.03925e-06	0.002491904388523363
3.03950e-06	0.0025532913984420524
3.03975e-06	0.0026146784083606383
3.04000e-06	0.002676065418279328
3.04025e-06	0.002737452428198018
3.04050e-06	0.0027988394381167074
3.04075e-06	0.0028602264480352933
3.04100e-06	0.0029026566647052106
3.04125e-06	0.0029253483159526563
3.04150e-06	0.0029480399672000635
3.04175e-06	0.0029707316184475092
3.04200e-06	0.0029934232696949546
3.04225e-06	0.0030161149209424003
3.04250e-06	0.0030388065721898075
3.04275e-06	0.0030614982234372532
3.04300e-06	0.0030841898746846986
3.04325e-06	0.0031068815259321057
3.04350e-06	0.0031150374681049955
3.04375e-06	0.0031080582531461476
3.04400e-06	0.0031010790381873115
3.04425e-06	0.003094099823228463
3.04450e-06	0.0030871206082696153
3.04475e-06	0.003080141393310767
3.04500e-06	0.003073162178351931
3.04525e-06	0.003066182963393083
3.04550e-06	0.003051290731608681
3.04575e-06	0.0030281591526808557
3.04600e-06	0.0030050275737529913
3.04625e-06	0.002981895994825127
3.04650e-06	0.002958764415897262
3.04675e-06	0.0029356328369694366
3.04700e-06	0.002912501258041572
3.04725e-06	0.0028893696791137077
3.04750e-06	0.002864415225218291
3.04775e-06	0.002837562721566538
3.04800e-06	0.002810710217914785
3.04825e-06	0.0027838577142630773
3.04850e-06	0.0027570052106113243
3.04875e-06	0.002730152706959571
3.04900e-06	0.002703300203307818
3.04925e-06	0.0026764476996561106
3.04950e-06	0.0026540768877412347
3.04975e-06	0.0026363725911169467
3.05000e-06	0.0026186682944926887
3.05025e-06	0.0026009639978684007
3.05050e-06	0.0025832597012441128
3.05075e-06	0.002565555404619825
3.05100e-06	0.0025478511079955668
3.05125e-06	0.002530146811371279
3.05150e-06	0.0025209036738806333
3.05175e-06	0.0025204706310577845
3.05200e-06	0.0025200375882349353
3.05225e-06	0.0025196045454120857
3.05250e-06	0.0025191715025892373
3.05275e-06	0.0025187384597663877
3.05300e-06	0.0025183054169435385
3.05325e-06	0.0025178723741206893
3.05350e-06	0.0025174393312978405
3.05375e-06	0.002517006288474991
3.05400e-06	0.0025165732456521417
3.05425e-06	0.002531895922625389
3.05450e-06	0.002547379382171845
3.05475e-06	0.0025628628417183018
3.05500e-06	0.002578346301264758
3.05525e-06	0.0025938297608111877
3.05550e-06	0.002609313220357644
3.05575e-06	0.0026247966799041005
3.05600e-06	0.00264028013945053
3.05625e-06	0.0026557635989969863
3.05650e-06	0.0026712470585434425
3.05675e-06	0.0026894462713233053
3.05700e-06	0.0027104732341435246
3.05725e-06	0.0027315001969637435
3.05750e-06	0.002752527159783963
3.05775e-06	0.0027735541226041466
3.05800e-06	0.002794581085424366
3.05825e-06	0.0028156080482445852
3.05850e-06	0.002836635011064769
3.05875e-06	0.0028576619738849883
3.05900e-06	0.0028731404473065526
3.05925e-06	0.0028885622999951332
3.05950e-06	0.002903984152683688
3.05975e-06	0.0029194060053722684
3.06000e-06	0.002934827858060849
3.06025e-06	0.002950249710749403
3.06050e-06	0.002965671563437984
3.06075e-06	0.0029810934161265644
3.06100e-06	0.0029876589277602486
3.06125e-06	0.0029850028656266377
3.06150e-06	0.0029823468034930263
3.06175e-06	0.0029796907413594154
3.06200e-06	0.0029770346792258088
3.06225e-06	0.0029743786170921974
3.06250e-06	0.0029717225549585865
3.06275e-06	0.00296906649282498
3.06300e-06	0.0029664104306913685
3.06325e-06	0.0029637543685577575
3.06350e-06	0.002951130104651043
3.06375e-06	0.002928126553473394
3.06400e-06	0.0029051230022957056
3.06425e-06	0.0028821194511180173
3.06450e-06	0.002859115899940368
3.06475e-06	0.0028361123487626798
3.06500e-06	0.0028131087975849915
3.06525e-06	0.002790105246407342
3.06550e-06	0.002767101695229654
3.06575e-06	0.0027440981440519656
3.06600e-06	0.002717169387723276
3.06625e-06	0.002684998698588228
3.06650e-06	0.0026516255302290242
3.06675e-06	0.0026182523618698203
3.06700e-06	0.002584879193510673
3.06725e-06	0.0025515060251514693
3.06750e-06	0.0025181328567922654
3.06775e-06	0.0024847596884330614
3.06800e-06	0.002451386520073914
3.06825e-06	0.0024211365221478067
3.06850e-06	0.0023909183952746348
3.06875e-06	0.002360700268401514
3.06900e-06	0.002330482141528342
3.06925e-06	0.00230026401465517
3.06950e-06	0.0022700458877820497
3.06975e-06	0.002239827760908878
3.07000e-06	0.002219931271193153
3.07025e-06	0.002210782079696986
3.07050e-06	0.0022016328882008347
3.07075e-06	0.0021924836967046678
3.07100e-06	0.002183334505208501
3.07125e-06	0.0021741853137123494
3.07150e-06	0.0021650361222161824
3.07175e-06	0.0021558869307200155
3.07200e-06	0.0021467377392238485
3.07225e-06	0.002137588547727697
3.07250e-06	0.00212843935623153
3.07275e-06	0.002119290164735363
3.07300e-06	0.00214259988632844
3.07325e-06	0.0021662408417623463
3.07350e-06	0.0021898817971962524
3.07375e-06	0.0022135227526301183
3.07400e-06	0.0022371637080640244
3.07425e-06	0.0022608046634979306
3.07450e-06	0.0022844456189318363
3.07475e-06	0.0023080865743657026
3.07500e-06	0.0023317275297996087
3.07525e-06	0.0023553684852335144
3.07550e-06	0.0023790094406673807
3.07575e-06	0.0024110341354712547
3.07600e-06	0.00245178831241362
3.07625e-06	0.0024925424893559164
3.07650e-06	0.002533296666298282
3.07675e-06	0.0025740508432406475
3.07700e-06	0.0026148050201830132
3.07725e-06	0.0026555591971253096
3.07750e-06	0.0026966213940063056
3.07775e-06	0.002738004313471098
3.07800e-06	0.0027793872329358207
3.07825e-06	0.002820770152400613
3.07850e-06	0.0028621530718654056
3.07875e-06	0.002903535991330198
3.07900e-06	0.0029449189107949207
3.07925e-06	0.0029773172347062854
3.07950e-06	0.0030003604411758685
3.07975e-06	0.003023403647645412
3.08000e-06	0.003046446854114995
3.08025e-06	0.0030694900605845775
3.08050e-06	0.003092533267054121
3.08075e-06	0.003115576473523704
3.08100e-06	0.0031386196799932865
3.08125e-06	0.0031616628864628692
3.08150e-06	0.003184706092932413
3.08175e-06	0.0032077492994019956
3.08200e-06	0.0032130097283552595
3.08225e-06	0.0031997540236529767
3.08250e-06	0.003186498318950671
3.08275e-06	0.0031732426142483654
3.08300e-06	0.00315998690954606
3.08325e-06	0.0031467312048437768
3.08350e-06	0.0031334755001414714
3.08375e-06	0.003120219795439166
3.08400e-06	0.0031069640907368827
3.08425e-06	0.0030937083860345773
3.08450e-06	0.0030804526813322714
3.08475e-06	0.0030550619186647146
3.08500e-06	0.003017035652066439
3.08525e-06	0.002979009385468163
3.08550e-06	0.0029409831188698873
3.08575e-06	0.002902956852271676
3.08600e-06	0.0028649305856734003
3.08625e-06	0.0028269043190751247
3.08650e-06	0.0027849681562576627
3.08675e-06	0.0027389608543331783
3.08700e-06	0.0026929535524086944
3.08725e-06	0.0026469462504842105
3.08750e-06	0.002600938948559804
3.08775e-06	0.00255493164663532
3.08800e-06	0.002508924344710836
3.08825e-06	0.002467118588137257
3.08850e-06	0.0024296876473204544
3.08875e-06	0.0023922567065036513
3.08900e-06	0.002354825765686912
3.08925e-06	0.0023173948248701092
3.08950e-06	0.0022799638840533066
3.08975e-06	0.0022425329432365034
3.09000e-06	0.002205102002419764
3.09025e-06	0.0021676710616029614
3.09050e-06	0.0021302401207861587
3.09075e-06	0.002092809179969419
3.09100e-06	0.00207998649121295
3.09125e-06	0.0020674149225677644
3.09150e-06	0.0020548433539225794
3.09175e-06	0.0020422717852774156
3.09200e-06	0.0020297002166322306
3.09225e-06	0.002017128647987045
3.09250e-06	0.0020045570793418813
3.09275e-06	0.0019919855106966962
3.09300e-06	0.001979413942051511
3.09325e-06	0.0019668423734063474
3.09350e-06	0.001964414835160799
3.09375e-06	0.001972549663931663
3.09400e-06	0.0019806844927025276
3.09425e-06	0.001988819321473378
3.09450e-06	0.0019969541502442424
3.09475e-06	0.0020050889790151068
3.09500e-06	0.0020132238077859572
3.09525e-06	0.0020213586365568216
3.09550e-06	0.002029493465327686
3.09575e-06	0.002048316674876772
3.09600e-06	0.0020672489562674513
3.09625e-06	0.002086181237658162
3.09650e-06	0.002105113519048873
3.09675e-06	0.002124045800439552
3.09700e-06	0.002142978081830263
3.09725e-06	0.0021619103632209737
3.09750e-06	0.002180842644611653
3.09775e-06	0.0022000695673000813
3.09800e-06	0.0022196032822004953
3.09825e-06	0.0022391369971009097
3.09850e-06	0.0022586707120012908
3.09875e-06	0.0022782044269017048
3.09900e-06	0.002297738141802119
3.09925e-06	0.0023172718567025
3.09950e-06	0.0023368055716029143
3.09975e-06	0.0023563392865033283
3.10000e-06	0.002370834734365898
3.10025e-06	0.0023800841386456065
3.10050e-06	0.00238933354292533
3.10075e-06	0.002398582947205054
3.10100e-06	0.0024078323514847622
3.10125e-06	0.002417081755764486
3.10150e-06	0.00242633116004421
3.10175e-06	0.002435580564323918
3.10200e-06	0.002444829968603642
3.10225e-06	0.002446815876834741
3.10250e-06	0.002441238744728912
3.10275e-06	0.002435661612623092
3.10300e-06	0.0024300844805172626
3.10325e-06	0.0024245073484114336
3.10350e-06	0.0024189302163056137
3.10375e-06	0.0024133530841997843
3.10400e-06	0.0024077759520939553
3.10425e-06	0.002402198819988126
3.10450e-06	0.0023966216878823065
3.10475e-06	0.002385563663360883
3.10500e-06	0.0023687987161476473
3.10525e-06	0.0023520337689344408
3.10550e-06	0.002335268821721205
3.10575e-06	0.00231850387450797
3.10600e-06	0.002301738927294763
3.10625e-06	0.0022849739800815277
3.10650e-06	0.002268209032868292
3.10675e-06	0.002251444085655057
3.10700e-06	0.00223467913844185
3.10725e-06	0.0022169466437635074
3.10750e-06	0.0021982067002674524
3.10775e-06	0.002179466756771429
3.10800e-06	0.002160726813275374
3.10825e-06	0.0021419868697793187
3.10850e-06	0.0021232469262832637
3.10875e-06	0.0021045069827872404
3.10900e-06	0.0020857670392911854
3.10925e-06	0.0020670270957951304
3.10950e-06	0.0020502896358585206
3.10975e-06	0.0020356372412723813
3.11000e-06	0.002020984846686242
3.11025e-06	0.0020063324521001277
3.11050e-06	0.0019916800575139884
3.11075e-06	0.001977027662927849
3.11100e-06	0.0019623752683417097
3.11125e-06	0.0019477228737555955
3.11150e-06	0.0019330704791694561
3.11175e-06	0.0019165828063785187
3.11200e-06	0.0018981841690878447
3.11225e-06	0.0018797855317971392
3.11250e-06	0.001861386894506434
3.11275e-06	0.0018429882572157286
3.11300e-06	0.0018245896199250544
3.11325e-06	0.0018061909826343492
3.11350e-06	0.0017877923453436437
3.11375e-06	0.0017693937080529695
3.11400e-06	0.0017509950707622643
3.11425e-06	0.0017325964334715589
3.11450e-06	0.0017111715813506391
3.11475e-06	0.0016865957142531529
3.11500e-06	0.0016620198471556668
3.11525e-06	0.0016374439800581806
3.11550e-06	0.001612868112960736
3.11575e-06	0.00158829224586325
3.11600e-06	0.0015637163787657637
3.11625e-06	0.0015391405116683193
3.11650e-06	0.001514564644570833
3.11675e-06	0.001489988777473347
3.11700e-06	0.0014654129103758608
3.11725e-06	0.0014409319909964103
3.11750e-06	0.001416549934948894
3.11775e-06	0.0013921678789013776
3.11800e-06	0.0013677858228539027
3.11825e-06	0.0013434037668063864
3.11850e-06	0.00131902171075887
3.11875e-06	0.0012946396547113951
3.11900e-06	0.0012702575986638788
3.11925e-06	0.0012526985718580598
3.11950e-06	0.0012352091720970965
3.11975e-06	0.0012177197723361626
3.12000e-06	0.001200230372575199
3.12025e-06	0.0011827409728142355
3.12050e-06	0.0011652515730533016
3.12075e-06	0.001147762173292338
3.12100e-06	0.001135880227641939
3.12125e-06	0.001129836985743456
3.12150e-06	0.0011237937438449833
3.12175e-06	0.0011177505019465005
3.12200e-06	0.0011117072600480176
3.12225e-06	0.001105664018149545
3.12250e-06	0.001099620776251062
3.12275e-06	0.0010935775343525792
3.12300e-06	0.0010875342924541065
3.12325e-06	0.0010814910505556235
3.12350e-06	0.0010867044963313844
3.12375e-06	0.0010920328133571602
3.12400e-06	0.001097361130382927
3.12425e-06	0.0011026894474087028
3.12450e-06	0.0011080177644344786
3.12475e-06	0.0011133460814602453
3.12500e-06	0.0011186743984860211
3.12525e-06	0.001124002715511797
3.12550e-06	0.0011293310325375728
3.12575e-06	0.0011377001918929442
3.12600e-06	0.0011492355969578772
3.12625e-06	0.0011607710020228102
3.12650e-06	0.0011723064070877237
3.12675e-06	0.0011838418121526567
3.12700e-06	0.0011953772172175897
3.12725e-06	0.001206912622282503
3.12750e-06	0.001218448027347436
3.12775e-06	0.0012301399487201683
3.12800e-06	0.00124199484108394
3.12825e-06	0.0012538497334476917
3.12850e-06	0.0012657046258114635
3.12875e-06	0.0012775595181752353
3.12900e-06	0.0012894144105389871
3.12925e-06	0.001301269302902759
3.12950e-06	0.0013131241952665307
3.12975e-06	0.0013238456258292525
3.13000e-06	0.0013333868509831893
3.13025e-06	0.0013429280761371421
3.13050e-06	0.001352469301291095
3.13075e-06	0.001365608640671344
3.13100e-06	0.0013824944793755277
3.13125e-06	0.0013993803180797114
3.13150e-06	0.0014162661567838665
3.13175e-06	0.0014374550212386005
3.13200e-06	0.001463124366870796
3.13225e-06	0.0014887937125029915
3.13250e-06	0.0015188486610009284
3.13275e-06	0.0015534700732458642
3.13300e-06	0.0015880914854908
3.13325e-06	0.0016276893867933724
3.13350e-06	0.0016724690059953902
3.13375e-06	0.001717248625197408
3.13400e-06	0.0017658003575187304
3.13425e-06	0.0018182797637165073
3.13450e-06	0.0018707591699143732
3.13475e-06	0.0019287457010512678
3.13500e-06	0.001992466469225468
3.13525e-06	0.002056187237399776
3.13550e-06	0.0021199080055740844
3.13575e-06	0.0021836287737482846
3.13600e-06	0.002247349541922593
3.13625e-06	0.0023110703100969006
3.13650e-06	0.002381207640048791
3.13675e-06	0.0024514104491623855
3.13700e-06	0.002521613258276099
3.13725e-06	0.0025918160673898123
3.13750e-06	0.0026620188765034067
3.13775e-06	0.0027322216856171203
3.13800e-06	0.002799245794745494
3.13825e-06	0.002862960115301961
3.13850e-06	0.0029266744358583206
3.13875e-06	0.0029903887564147877
3.13900e-06	0.0030541030769712547
3.13925e-06	0.0031178173975276143
3.13950e-06	0.0031815317180840814
3.13975e-06	0.0032239224707296655
3.14000e-06	0.0032660956225161104
3.14025e-06	0.003308268774302627
3.14050e-06	0.003350441926089143
3.14075e-06	0.0033926150778756593
3.14100e-06	0.003434788229662104
3.14125e-06	0.0034658330594433398
3.14150e-06	0.0034852906387232902
3.14175e-06	0.0035047482180032073
3.14200e-06	0.0035166084175220786
3.14225e-06	0.0035205579237303814
3.14250e-06	0.003524507429938684
3.14275e-06	0.0035210304613104604
3.14300e-06	0.0035098207523615176
3.14325e-06	0.0034986110434125747
3.14350e-06	0.0034805603848414163
3.14375e-06	0.0034553866580393456
3.14400e-06	0.0034302129312372746
3.14425e-06	0.0033955539621114816
3.14450e-06	0.0033510185822546567
3.14475e-06	0.003306483202397832
3.14500e-06	0.003261947822541007
3.14525e-06	0.0032174124426842575
3.14550e-06	0.0031728770628274327
3.14575e-06	0.0031283416829706078
3.14600e-06	0.003075932216520583
3.14625e-06	0.003015323938624962
3.14650e-06	0.002954715660729341
3.14675e-06	0.0028941073828337204
3.14700e-06	0.002833499104938202
3.14725e-06	0.002772890827042581
3.14750e-06	0.0027122825491469604
3.14775e-06	0.0026523679176616104
3.14800e-06	0.002593175538345923
3.14825e-06	0.0025339831590302357
