Time(s)	Current(A)
7.00000e-06	-0.001345523330813072
7.00025e-06	-0.001363045000901244
7.00050e-06	-0.001378956058362066
7.00075e-06	-0.0013940755370894977
7.00100e-06	-0.0014091950158168782
7.00125e-06	-0.0014208971131791817
7.00150e-06	-0.0014309196468980478
7.00175e-06	-0.00144094218061688
7.00200e-06	-0.001450964714335712
7.00225e-06	-0.0014609872480545781
7.00250e-06	-0.0014698383154337193
7.00275e-06	-0.0014729891278686103
7.00300e-06	-0.0014761399403034905
7.00325e-06	-0.0014792907527383706
7.00350e-06	-0.0014824415651732614
7.00375e-06	-0.0014855923776081416
7.00400e-06	-0.0014853127855318823
7.00425e-06	-0.0014833472292381498
7.00450e-06	-0.0014813816729444239
7.00475e-06	-0.0014772123477380923
7.00500e-06	-0.001471959921247887
7.00525e-06	-0.0014667074947576993
7.00550e-06	-0.0014598075882633111
7.00575e-06	-0.0014520979835752961
7.00600e-06	-0.0014433093641728438
7.00625e-06	-0.0014339904340759195
7.00650e-06	-0.0014239532535881545
7.00675e-06	-0.001413130652055236
7.00700e-06	-0.0014016979996550809
7.00725e-06	-0.0013897153735704473
7.00750e-06	-0.001377266237606189
7.00775e-06	-0.0013644496177413392
7.00800e-06	-0.0013513557857389369
7.00825e-06	-0.0013380626245558373
7.00850e-06	-0.0013246443661446537
7.00875e-06	-0.001311175362865065
7.00900e-06	-0.0012977300424692685
7.00925e-06	-0.0012843879458938128
7.00950e-06	-0.0012712432442682766
7.00975e-06	-0.0012583998013482557
7.01000e-06	-0.001245955907141914
7.01025e-06	-0.001234002226565933
7.01050e-06	-0.001222627077826869
7.01075e-06	-0.0012119188214844891
7.01100e-06	-0.0012019659331834556
7.01125e-06	-0.0011928883442200503
7.01150e-06	-0.00118487319523426
7.01175e-06	-0.0011785597022725086
7.01200e-06	-0.0011728991236639767
7.01225e-06	-0.0011701697226629334
7.01250e-06	-0.0011688809274400943
7.01275e-06	-0.0011675921322172507
7.01300e-06	-0.0011663033369944116
7.01325e-06	-0.001166084218242867
7.01350e-06	-0.001171070053646086
7.01375e-06	-0.001176055889049288
7.01400e-06	-0.0011810417244524903
7.01425e-06	-0.0011860275598557092
7.01450e-06	-0.0011944041532078004
7.01475e-06	-0.0012044472254115956
7.01500e-06	-0.0012144902976154249
7.01525e-06	-0.0012268756060427263
7.01550e-06	-0.00124041206922395
7.01575e-06	-0.0012539485324051278
7.01600e-06	-0.001269520480664848
7.01625e-06	-0.0012860928226086847
7.01650e-06	-0.0013026651645524653
7.01675e-06	-0.0013207021586553078
7.01700e-06	-0.0013394589953081271
7.01725e-06	-0.0013582158319608829
7.01750e-06	-0.001377905098429902
7.01775e-06	-0.0013980526325172707
7.01800e-06	-0.001418200166604571
7.01825e-06	-0.001438677243524977
7.01850e-06	-0.0014593162831011007
7.01875e-06	-0.0014798370712815697
7.01900e-06	-0.0015002997416450556
7.01925e-06	-0.0015203286674506788
7.01950e-06	-0.0015401444178707723
7.01975e-06	-0.0015592297415187274
7.02000e-06	-0.0015779560773571644
7.02025e-06	-0.0015952549666461149
7.02050e-06	-0.0016118522990790371
7.02075e-06	-0.0016284496315119032
7.02100e-06	-0.0016435375609824927
7.02125e-06	-0.0016571394896938482
7.02150e-06	-0.0016700279496035474
7.02175e-06	-0.0016828575547302208
7.02200e-06	-0.0016957422279270868
7.02225e-06	-0.0017086756977119015
7.02250e-06	-0.0017216331498874193
7.02275e-06	-0.0017345906020629811
7.02300e-06	-0.0017471801740167347
7.02325e-06	-0.0017595889413779286
7.02350e-06	-0.0017722568080841524
7.02375e-06	-0.0017850520161061508
7.02400e-06	-0.0017978472241281926
7.02425e-06	-0.0018112992542583656
7.02450e-06	-0.0018250740972135377
7.02475e-06	-0.0018388489401687563
7.02500e-06	-0.0018527959436265948
7.02525e-06	-0.0018668275599766097
7.02550e-06	-0.0018808591763266724
7.02575e-06	-0.0018956002594215742
7.02600e-06	-0.001910690028958821
7.02625e-06	-0.001925779798496119
7.02650e-06	-0.0019408695680333658
7.02675e-06	-0.0019559593375706127
7.02700e-06	-0.0019710491071079105
7.02725e-06	-0.001986138876645157
7.02750e-06	-0.002001173661996265
7.02775e-06	-0.002015940899003936
7.02800e-06	-0.0020307081360115575
7.02825e-06	-0.0020454753730192285
7.02850e-06	-0.0020602426100268497
7.02875e-06	-0.0020750098470344713
7.02900e-06	-0.0020897770840421423
7.02925e-06	-0.002104544321049764
7.02950e-06	-0.0021181349553703317
7.02975e-06	-0.0021311473167726887
7.03000e-06	-0.0021441596781750015
7.03025e-06	-0.0021564978635239297
7.03050e-06	-0.0021680654206140105
7.03075e-06	-0.0021789144126469193
7.03100e-06	-0.002188949685951561
7.03125e-06	-0.0021978595711417584
7.03150e-06	-0.002204823067768621
7.03175e-06	-0.0022088860168053277
7.03200e-06	-0.0022095996499771047
7.03225e-06	-0.002206969416922342
7.03250e-06	-0.002201109949701967
7.03275e-06	-0.002191142565992873
7.03300e-06	-0.0021796730956558396
7.03325e-06	-0.0021651656181772287
7.03350e-06	-0.0021468084325745635
7.03375e-06	-0.002123365682383883
7.03400e-06	-0.002097992730160973
7.03425e-06	-0.0020688831899447137
7.03450e-06	-0.00203566599610265
7.03475e-06	-0.0019992261986962376
7.03500e-06	-0.001959809666885419
7.03525e-06	-0.0019175773473753804
7.03550e-06	-0.0018724902345519663
7.03575e-06	-0.0018244571654699678
7.03600e-06	-0.0017735852496022725
7.03625e-06	-0.0017201598105083752
7.03650e-06	-0.001664509140726724
7.03675e-06	-0.0016069613356649143
7.03700e-06	-0.001547844415338648
7.03725e-06	-0.0014874332835369173
7.03750e-06	-0.0014258775135159148
7.03775e-06	-0.0013632940000124114
7.03800e-06	-0.0012999239183573653
7.03825e-06	-0.0012361201225214774
7.03850e-06	-0.0011722620087084796
7.03875e-06	-0.001108729170251574
7.03900e-06	-0.0010459009636617162
7.03925e-06	-0.0009841235369162276
7.03950e-06	-0.0009236644851363648
7.03975e-06	-0.0008647708406402234
7.04000e-06	-0.0008077675646265492
7.04025e-06	-0.0007530494397561564
7.04050e-06	-0.0007010279750107322
7.04075e-06	-0.0006521146985532921
7.04100e-06	-0.0006067210214655721
7.04125e-06	-0.0005649737914545739
7.04150e-06	-0.0005262795426479863
7.04175e-06	-0.0004897187699436587
7.04200e-06	-0.00045487322529927355
7.04225e-06	-0.0004218473730357564
7.04250e-06	-0.0003908766046011049
7.04275e-06	-0.0003621962436455725
7.04300e-06	-0.00033604157512486047
7.04325e-06	-0.0003124695996930424
7.04350e-06	-0.000291086203916459
7.04375e-06	-0.0002712929447356267
7.04400e-06	-0.0002528054519983643
7.04425e-06	-0.00023566687493096027
7.04450e-06	-0.0002200023011313842
7.04475e-06	-0.0002059367606552324
7.04500e-06	-0.00019359525428809724
7.04525e-06	-0.00018299111257407002
7.04550e-06	-0.00017385506804826122
7.04575e-06	-0.00016578993227729682
7.04600e-06	-0.00015859528030143778
7.04625e-06	-0.00015227578057490072
7.04650e-06	-0.0001468874920366354
7.04675e-06	-0.00014248641491899225
7.04700e-06	-0.00013912852564468658
7.04725e-06	-0.0001367998400225164
7.04750e-06	-0.00013530937357127408
7.04775e-06	-0.00013438601071928986
7.04800e-06	-0.00013388193415055685
7.04825e-06	-0.00013391758725044727
7.04850e-06	-0.00013415512543867752
7.04875e-06	-0.00013496897819469404
7.04900e-06	-0.0001360660761875948
7.04925e-06	-0.00013764145326782787
7.04950e-06	-0.0001394518934211832
7.04975e-06	-0.00014128914990793473
7.05000e-06	-0.0001431395860002891
7.05025e-06	-0.0001449900220926497
7.05050e-06	-0.00014672606069213737
7.05075e-06	-0.00014833279777702577
7.05100e-06	-0.00014982099894879692
7.05125e-06	-0.00015139564632515667
7.05150e-06	-0.00015378804318603043
7.05175e-06	-0.00015789539929960046
7.05200e-06	-0.00016413677982541404
7.05225e-06	-0.00017248653002705395
7.05250e-06	-0.00018281118453328214
7.05275e-06	-0.00019497726342084006
7.05300e-06	-0.00020885129172808429
7.05325e-06	-0.00022443712506361614
7.05350e-06	-0.00024206827442150425
7.05375e-06	-0.00026218213036866234
7.05400e-06	-0.0002849165260594213
7.05425e-06	-0.00031013073519953985
7.05450e-06	-0.000337616500368764
7.05475e-06	-0.0003671655935830242
7.05500e-06	-0.00039914189107082996
7.05525e-06	-0.0004319880521188693
7.05550e-06	-0.00046733603999148034
7.05575e-06	-0.0005039136176941814
7.05600e-06	-0.0005429778310151861
7.05625e-06	-0.0005832641680406497
7.05650e-06	-0.0006253960854287179
7.05675e-06	-0.0006684350627389252
7.05700e-06	-0.0007126626226823888
7.05725e-06	-0.0007574743434094004
7.05750e-06	-0.0008031801500599623
7.05775e-06	-0.000849325379194671
7.05800e-06	-0.000896021121262244
7.05825e-06	-0.0009429874276619572
7.05850e-06	-0.0009897687272163208
7.05875e-06	-0.0010364591001994726
7.05900e-06	-0.0010822189361687923
7.05925e-06	-0.0011275214347887957
7.05950e-06	-0.001171375256245459
7.05975e-06	-0.0012145170864923545
7.06000e-06	-0.0012556612096636867
7.06025e-06	-0.0012958235061638797
7.06050e-06	-0.001332326735029154
7.06075e-06	-0.0013670316170598397
7.06100e-06	-0.0014017364990906432
7.06125e-06	-0.0014329986914252905
7.06150e-06	-0.0014615440362325525
7.06175e-06	-0.0014891600272956599
7.06200e-06	-0.0015165668133984614
7.06225e-06	-0.0015432804043563717
7.06250e-06	-0.0015696533059861176
7.06275e-06	-0.0015947304377024313
7.06300e-06	-0.0016191707285745217
7.06325e-06	-0.0016422683002167001
7.06350e-06	-0.00166470595651498
7.06375e-06	-0.001687091264780774
7.06400e-06	-0.001709450845203215
7.06425e-06	-0.0017318104256256563
7.06450e-06	-0.0017537755745503402
7.06475e-06	-0.0017755468695464826
7.06500e-06	-0.001797318164542625
7.06525e-06	-0.0018184036534800395
7.06550e-06	-0.0018391520846535033
7.06575e-06	-0.001859900515826967
7.06600e-06	-0.0018807530706716317
7.06625e-06	-0.0019016567998844124
7.06650e-06	-0.0019225605290971934
7.06675e-06	-0.0019428644999802092
7.06700e-06	-0.0019628737035613485
7.06725e-06	-0.001982882907142556
7.06750e-06	-0.0020028921107236954
7.06775e-06	-0.0020222621908789385
7.06800e-06	-0.002041318156701193
7.06825e-06	-0.002060374122523383
7.06850e-06	-0.002079430088345573
7.06875e-06	-0.0020971046983433335
7.06900e-06	-0.0021141004040074914
7.06925e-06	-0.0021310961096716492
7.06950e-06	-0.0021480918153358648
7.06975e-06	-0.0021650875210000226
7.07000e-06	-0.002179830721003732
7.07025e-06	-0.002193466866744526
7.07050e-06	-0.002207103012485273
7.07075e-06	-0.0022207391582260206
7.07100e-06	-0.002234375303966814
7.07125e-06	-0.002244396994980771
7.07150e-06	-0.002252642265369621
7.07175e-06	-0.0022608875357584424
7.07200e-06	-0.0022691328061472645
7.07225e-06	-0.002277378076536114
7.07250e-06	-0.002285623346924936
7.07275e-06	-0.0022896599603815008
7.07300e-06	-0.002291628116617421
7.07325e-06	-0.0022935962728533347
7.07350e-06	-0.002295564429089248
7.07375e-06	-0.0022975325853251682
7.07400e-06	-0.0022995007415610815
7.07425e-06	-0.00229747111601576
7.07450e-06	-0.00229347667349322
7.07475e-06	-0.002289482230970693
7.07500e-06	-0.0022854877884481662
7.07525e-06	-0.0022814933459256257
7.07550e-06	-0.002277498903403099
7.07575e-06	-0.002272717787267008
7.07600e-06	-0.002264108784667661
7.07625e-06	-0.002255499782068314
7.07650e-06	-0.0022468907794689374
7.07675e-06	-0.0022382817768695903
7.07700e-06	-0.0022296727742702432
7.07725e-06	-0.002221063771670867
7.07750e-06	-0.0022111691281300836
7.07775e-06	-0.0022006426218998485
7.07800e-06	-0.002189833092857319
7.07825e-06	-0.0021788844646701395
7.07850e-06	-0.0021678170387112398
7.07875e-06	-0.002156691226404202
7.07900e-06	-0.0021456101388824815
7.07925e-06	-0.002134551032554888
7.07950e-06	-0.0021237388882178795
7.07975e-06	-0.0021130481199685466
7.08000e-06	-0.0021029815994057575
7.08025e-06	-0.0020932218820952893
7.08050e-06	-0.002083462164784821
7.08075e-06	-0.0020746096919552585
7.08100e-06	-0.002066203108735492
7.08125e-06	-0.0020584801200523523
7.08150e-06	-0.0020510931022211213
7.08175e-06	-0.0020436947665995733
7.08200e-06	-0.002036290868546702
7.08225e-06	-0.0020288291772846056
7.08250e-06	-0.002021339082001305
7.08275e-06	-0.002013848986718005
7.08300e-06	-0.0020063699598689678
7.08325e-06	-0.001998944791073719
7.08350e-06	-0.0019915196222784703
7.08375e-06	-0.0019840944534831964
7.08400e-06	-0.001976164081323741
7.08425e-06	-0.0019679854134340155
7.08450e-06	-0.0019598067455443174
7.08475e-06	-0.0019516280776546197
7.08500e-06	-0.001943357950274218
7.08525e-06	-0.0019346427888413923
7.08550e-06	-0.0019259276274085663
7.08575e-06	-0.001917212465975711
7.08600e-06	-0.0019084973045428852
7.08625e-06	-0.0018993826794425064
7.08650e-06	-0.001890071727219074
7.08675e-06	-0.0018807607749956729
7.08700e-06	-0.001871449822772272
7.08725e-06	-0.0018621388705488396
7.08750e-06	-0.0018528279183254385
7.08775e-06	-0.0018435169661020375
7.08800e-06	-0.001834206013878605
7.08825e-06	-0.001825036349298343
7.08850e-06	-0.0018165541782948832
7.08875e-06	-0.001808072007291452
7.08900e-06	-0.0017995898362880207
7.08925e-06	-0.0017911076652845608
7.08950e-06	-0.0017826254942811298
7.08975e-06	-0.0017741433232776986
7.09000e-06	-0.0017656611522742388
7.09025e-06	-0.0017571789812708075
7.09050e-06	-0.0017501767943217427
7.09075e-06	-0.0017439019851921852
7.09100e-06	-0.001737627176062649
7.09125e-06	-0.0017313523669331128
7.09150e-06	-0.0017250775578035555
7.09175e-06	-0.0017198307630842482
7.09200e-06	-0.001715089213592366
7.09225e-06	-0.0017103476641004674
7.09250e-06	-0.0017056061146085851
7.09275e-06	-0.0017008645651166868
7.09300e-06	-0.0016974816521629584
7.09325e-06	-0.001694766477540382
7.09350e-06	-0.0016920513029177963
7.09375e-06	-0.0016893361282952198
7.09400e-06	-0.0016866209536726432
7.09425e-06	-0.0016839057790500574
7.09450e-06	-0.001681190604427481
7.09475e-06	-0.0016784754298049046
7.09500e-06	-0.0016757602551823187
7.09525e-06	-0.0016730450805597424
7.09550e-06	-0.001670329905937166
7.09575e-06	-0.00166761473131458
7.09600e-06	-0.0016648995566920035
7.09625e-06	-0.0016621843820694272
7.09650e-06	-0.0016597383912683144
7.09675e-06	-0.0016586022258991407
7.09700e-06	-0.0016574660605299632
7.09725e-06	-0.0016563298951607895
7.09750e-06	-0.0016551937297916157
7.09775e-06	-0.0016540575644224383
7.09800e-06	-0.0016529213990532645
7.09825e-06	-0.0016517852336840908
7.09850e-06	-0.0016506490683149133
7.09875e-06	-0.0016495129029457396
7.09900e-06	-0.0016483767375765658
7.09925e-06	-0.0016472405722073881
7.09950e-06	-0.0016461044068382146
7.09975e-06	-0.0016449682414690409
7.10000e-06	-0.0016438320760998632
7.10025e-06	-0.00164294951401687
7.10050e-06	-0.0016421915920641157
7.10075e-06	-0.0016414594668679686
7.10100e-06	-0.0016407601580405162
7.10125e-06	-0.0016402377814793746
7.10150e-06	-0.0016403863360449759
7.10175e-06	-0.0016423404060693144
7.10200e-06	-0.0016450396117212028
7.10225e-06	-0.0016502193387835024
7.10250e-06	-0.0016566181845579344
7.10275e-06	-0.0016630170303323882
7.10300e-06	-0.0016721093801189773
7.10325e-06	-0.0016825255246241204
7.10350e-06	-0.001692941669129299
7.10375e-06	-0.001706856597942973
7.10400e-06	-0.0017224910980541159
7.10425e-06	-0.0017381255981653116
7.10450e-06	-0.001757638605291814
7.10475e-06	-0.0017790578086146007
7.10500e-06	-0.00180047701193746
7.10525e-06	-0.0018218962152602464
7.10550e-06	-0.0018443218875433712
7.10575e-06	-0.0018716449516272358
7.10600e-06	-0.0018989680157111006
7.10625e-06	-0.0019262910797950578
7.10650e-06	-0.0019536141438789224
7.10675e-06	-0.001983242602828902
7.10700e-06	-0.002014004109858341
7.10725e-06	-0.0020447656168876755
7.10750e-06	-0.0020765094040472018
7.10775e-06	-0.00210873595909673
7.10800e-06	-0.0021409625141461494
7.10825e-06	-0.0021734095449550458
7.10850e-06	-0.0022059649344836293
7.10875e-06	-0.0022385203240121022
7.10900e-06	-0.0022703908961620983
7.10925e-06	-0.0023019248964620763
7.10950e-06	-0.0023324511450989903
7.10975e-06	-0.002362482107178855
7.11000e-06	-0.002390642225505825
7.11025e-06	-0.002417882867541826
7.11050e-06	-0.0024451235095779194
7.11075e-06	-0.002469046243807444
7.11100e-06	-0.0024913383033432256
7.11125e-06	-0.002513630362879083
7.11150e-06	-0.0025335065555077405
7.11175e-06	-0.0025521954056125493
7.11200e-06	-0.002569573005147862
7.11225e-06	-0.002586306155456193
7.11250e-06	-0.002603039305764524
7.11275e-06	-0.0026176229084806184
7.11300e-06	-0.00263115005843605
7.11325e-06	-0.002644677208391482
7.11350e-06	-0.0026562145433696397
7.11375e-06	-0.002666773930460769
7.11400e-06	-0.002677333317551934
7.11425e-06	-0.0026878927046430634
7.11450e-06	-0.002697967706606024
7.11475e-06	-0.002705685732002321
7.11500e-06	-0.0027134037573985914
7.11525e-06	-0.002721121782794862
7.11550e-06	-0.0027288398081911584
7.11575e-06	-0.002734561184572692
7.11600e-06	-0.0027393012542964836
7.11625e-06	-0.0027440413240202915
7.11650e-06	-0.002748781393744083
7.11675e-06	-0.0027535214634678744
7.11700e-06	-0.002758261533191682
7.11725e-06	-0.0027630016029154734
7.11750e-06	-0.0027677416726392652
7.11775e-06	-0.0027724817423630727
7.11800e-06	-0.002775507544109353
7.11825e-06	-0.0027776908229249745
7.11850e-06	-0.002779874101740588
7.11875e-06	-0.002782057380556202
7.11900e-06	-0.002784240659371823
7.11925e-06	-0.002786423938187437
7.11950e-06	-0.002788607217003051
7.11975e-06	-0.002790790495818672
7.12000e-06	-0.002792973774634286
7.12025e-06	-0.002794650467419546
7.12050e-06	-0.0027960080926800255
7.12075e-06	-0.0027972511861045057
7.12100e-06	-0.0027983646904243447
7.12125e-06	-0.0027989814493411223
7.12150e-06	-0.0027978920631104094
7.12175e-06	-0.002793631277957607
7.12200e-06	-0.002785513286360081
7.12225e-06	-0.002773572389485501
7.12250e-06	-0.002758017203590506
7.12275e-06	-0.0027390561888244592
7.12300e-06	-0.002716897728613386
7.12325e-06	-0.0026915294704446782
7.12350e-06	-0.0026624117389179584
7.12375e-06	-0.002627284143587929
7.12400e-06	-0.002589849865531777
7.12425e-06	-0.002547967305601534
7.12450e-06	-0.0025012448477604587
7.12475e-06	-0.0024507981946649293
7.12500e-06	-0.0023969755815739274
7.12525e-06	-0.0023399870913110707
7.12550e-06	-0.0022797125667708704
7.12575e-06	-0.0022159317590438334
7.12600e-06	-0.002148729909517494
7.12625e-06	-0.0020784749851160502
7.12650e-06	-0.0020056033871893733
7.12675e-06	-0.0019305509720408244
7.12700e-06	-0.0018537539902349991
7.12725e-06	-0.001775562047377157
7.12750e-06	-0.0016961175550535882
7.12775e-06	-0.001615500205434629
7.12800e-06	-0.0015339813143537043
7.12825e-06	-0.001452009110097639
7.12850e-06	-0.0013700746324944559
7.12875e-06	-0.0012886687652638906
7.12900e-06	-0.0012082824715099478
7.12925e-06	-0.00112935230955953
7.12950e-06	-0.001052185030426187
7.12975e-06	-0.0009770481826886204
7.13000e-06	-0.0009043293616630891
7.13025e-06	-0.0008345268822649098
7.13050e-06	-0.0007681658358029622
7.13075e-06	-0.0007057711965062126
7.13100e-06	-0.0006478678810603544
7.13125e-06	-0.0005947427032591523
7.13150e-06	-0.0005460628278773506
7.13175e-06	-0.0005011715463030214
7.13200e-06	-0.00045977669135403566
7.13225e-06	-0.00042199842982147234
7.13250e-06	-0.00038806232564902527
7.13275e-06	-0.00035819382636541244
7.13300e-06	-0.0003326183411373974
7.13325e-06	-0.00031141207943355376
7.13350e-06	-0.0002942631318541809
7.13375e-06	-0.0002806567370496515
7.13400e-06	-0.0002703065291528569
7.13425e-06	-0.00026318442999550255
7.13450e-06	-0.0002593283615359973
7.13475e-06	-0.000258776197448166
7.13500e-06	-0.00026156572376171403
7.13525e-06	-0.00026764133588783696
7.13550e-06	-0.00027670426797590607
7.13575e-06	-0.0002883287445585028
7.13600e-06	-0.00030223208461594705
7.13625e-06	-0.0003182933743989739
7.13650e-06	-0.0003364330926524188
7.13675e-06	-0.0003565716886846812
7.13700e-06	-0.00037920819514116686
7.13725e-06	-0.00040275288839044463
7.13750e-06	-0.0004281320003205863
7.13775e-06	-0.0004544126864634407
7.13800e-06	-0.00048174441481752954
7.13825e-06	-0.0005095927060284541
7.13850e-06	-0.0005380552995804687
7.13875e-06	-0.0005668198084779073
7.13900e-06	-0.0005957698901102579
7.13925e-06	-0.00062481117643534
7.13950e-06	-0.000653338713132527
7.13975e-06	-0.0006816137538093443
7.14000e-06	-0.0007086078352667133
7.14025e-06	-0.0007349723549932877
7.14050e-06	-0.0007589370478529494
7.14075e-06	-0.0007817222814970971
7.14100e-06	-0.0008045075151413221
7.14125e-06	-0.0008244945291939649
7.14150e-06	-0.0008431062832518938
7.14175e-06	-0.0008599310037455251
7.14200e-06	-0.0008758774387115033
7.14225e-06	-0.0008918238736774813
7.14250e-06	-0.0009054700002779762
7.14275e-06	-0.0009179855786969463
7.14300e-06	-0.0009305011571159164
7.14325e-06	-0.0009405549600271029
