Time(s)	Current(A)
1.15000e-05	-0.00014537340893608873
1.15003e-05	-0.00014971291943277764
1.15005e-05	-0.00014722736779762113
1.15007e-05	-0.0001381184462907851
1.15010e-05	-0.00012257290675014761
1.15013e-05	-0.00010075929878800629
1.15015e-05	-7.28462069522663e-05
1.15018e-05	-3.9002270081288555e-05
1.15020e-05	5.922720504364069e-07
1.15023e-05	4.5700740954727715e-05
1.15025e-05	9.599481610432793e-05
1.15028e-05	0.00015109736326382697
1.15030e-05	0.00021064063015147747
1.15033e-05	0.00027426828318360773
1.15035e-05	0.0003416240146083321
1.15038e-05	0.00041235147712511533
1.15040e-05	0.00048645724777308827
1.15043e-05	0.0005632163887116088
1.15045e-05	0.0006413706116332022
1.15048e-05	0.0007224814737163857
1.15050e-05	0.0008035923358001188
1.15053e-05	0.0008847031978838519
1.15055e-05	0.0009662486999845154
1.15058e-05	0.0010478892351518008
1.15060e-05	0.001129529770319086
1.15063e-05	0.0012096031932303207
1.15065e-05	0.0012863553880546389
1.15068e-05	0.0013631075828789568
1.15070e-05	0.0014374186237065421
1.15073e-05	0.0015065560535250531
1.15075e-05	0.001572921867724288
1.15078e-05	0.0016334137136669116
1.15080e-05	0.001690853006826389
1.15083e-05	0.0017418229331563396
1.15085e-05	0.0017927928594859447
1.15088e-05	0.0018424555665175072
1.15090e-05	0.0018893478444139114
1.15092e-05	0.001936240122309998
1.15095e-05	0.0019790168127274176
1.15098e-05	0.0020208936391627455
1.15100e-05	0.0020613756000745303
1.15103e-05	0.002096488870991582
1.15105e-05	0.002126489237866225
1.15108e-05	0.0021564896047408686
1.15110e-05	0.0021864899716153084
1.15113e-05	0.0022164903384899516
1.15115e-05	0.002246490705364595
1.15118e-05	0.002276491072239035
1.15120e-05	0.002306491439113678
1.15123e-05	0.0023364918059883217
1.15125e-05	0.0023664921728627614
1.15128e-05	0.0023964925397374046
1.15130e-05	0.002426492906612048
1.15133e-05	0.002456493273486488
1.15135e-05	0.0024864936403611315
1.15138e-05	0.0025164940072357747
1.15140e-05	0.0025464943741102144
1.15143e-05	0.002576494740984858
1.15145e-05	0.002606495107859501
1.15148e-05	0.002636495474733941
1.15150e-05	0.002655251161546635
1.15153e-05	0.0026715482242545487
1.15155e-05	0.0026878452869623522
1.15158e-05	0.002704142349670266
1.15160e-05	0.00272043941237818
1.15163e-05	0.0027367364750859836
1.15165e-05	0.0027530335377938973
1.15168e-05	0.002769330600501811
1.15170e-05	0.0027856276632096146
1.15173e-05	0.0028019247259175287
1.15175e-05	0.0028182217886254424
1.15177e-05	0.002834518851333246
1.15180e-05	0.0028508159140411596
1.15183e-05	0.0028671129767490738
1.15185e-05	0.0028834100394568773
1.15188e-05	0.002899707102164791
1.15190e-05	0.0029160041648727047
1.15193e-05	0.002932301227580619
1.15195e-05	0.0029440297993577223
1.15198e-05	0.0029460762310385986
1.15200e-05	0.0029481226627194744
1.15203e-05	0.002950169094400337
1.15205e-05	0.002952215526081213
1.15208e-05	0.002954261957762089
1.15210e-05	0.0029563083894429514
1.15213e-05	0.0029583548211238276
1.15215e-05	0.002960401252804704
1.15218e-05	0.002962447684485566
1.15220e-05	0.002964494116166442
1.15223e-05	0.0029665405478473184
1.15225e-05	0.002968586979528181
1.15228e-05	0.0029706334112090567
1.15230e-05	0.0029704769188329283
1.15233e-05	0.002965651703312353
1.15235e-05	0.002960826487791745
1.15238e-05	0.002956001272271137
1.15240e-05	0.0029511760567505615
1.15243e-05	0.0029463508412299537
1.15245e-05	0.002941525625709346
1.15248e-05	0.0029367004101887705
1.15250e-05	0.0029318751946681623
1.15253e-05	0.0029270499791475544
1.15255e-05	0.002922224763626979
1.15258e-05	0.0029173995481063713
1.15260e-05	0.002912574332585763
1.15262e-05	0.0029077491170651877
1.15265e-05	0.0029028122724926086
1.15268e-05	0.0028976388491160857
1.15270e-05	0.0028924654257395984
1.15273e-05	0.002887292002363076
1.15275e-05	0.0028821185789865535
1.15278e-05	0.0028769451556100306
1.15280e-05	0.0028717717322335433
1.15283e-05	0.002866598308857021
1.15285e-05	0.002861424885480498
1.15288e-05	0.0028562514621040106
1.15290e-05	0.002846753242309608
1.15293e-05	0.0028363094154663588
1.15295e-05	0.0028258655886231805
1.15298e-05	0.0028154217617799315
1.15300e-05	0.002804977934936682
1.15303e-05	0.0027945341080935038
1.15305e-05	0.0027840902812502548
1.15308e-05	0.0027736464544070054
1.15310e-05	0.002763202627563827
1.15313e-05	0.002749816039824894
1.15315e-05	0.0027301927704979087
1.15318e-05	0.002710569501171057
1.15320e-05	0.002690946231844072
1.15323e-05	0.002671322962517087
1.15325e-05	0.0026516996931902352
1.15328e-05	0.00263207642386325
1.15330e-05	0.0026124531545362656
1.15333e-05	0.0025928298852094136
1.15335e-05	0.0025732066158824286
1.15338e-05	0.0025522353184072475
1.15340e-05	0.002528407104372971
1.15343e-05	0.002504578890338533
1.15345e-05	0.0024807506763040946
1.15347e-05	0.002456922462269818
1.15350e-05	0.00243309424823538
1.15353e-05	0.0024092660342009417
1.15355e-05	0.0023854378201666653
1.15358e-05	0.002361609606132227
1.15360e-05	0.002337781392097789
1.15362e-05	0.002315240300031048
1.15365e-05	0.0022954270442249935
1.15368e-05	0.0022756137884189388
1.15370e-05	0.0022558005326128844
1.15373e-05	0.0022359872768069645
1.15375e-05	0.00221617402100091
1.15378e-05	0.0021963607651948555
1.15380e-05	0.002177556253675745
1.15383e-05	0.002160889604234111
1.15385e-05	0.002144222954792477
1.15388e-05	0.0021275563053509564
1.15390e-05	0.0021108896559093224
1.15393e-05	0.0020942230064676885
1.15395e-05	0.0020775563570261677
1.15398e-05	0.0020594436900692953
1.15400e-05	0.002038266434742502
1.15403e-05	0.0020170891794158525
1.15405e-05	0.001995911924089059
1.15408e-05	0.0019747346687622657
1.15410e-05	0.001953557413435616
1.15413e-05	0.0019323801581088225
1.15415e-05	0.0019112029027820293
1.15418e-05	0.0018900256474553795
1.15420e-05	0.001868848392128586
1.15423e-05	0.001847671136801793
1.15425e-05	0.0018215001271036618
1.15428e-05	0.001794237244197605
1.15430e-05	0.0017669743612915485
1.15432e-05	0.0017397114783856767
1.15435e-05	0.0017124485954796201
1.15438e-05	0.0016851857125735636
1.15440e-05	0.0016579228296676916
1.15443e-05	0.001630659946761635
1.15445e-05	0.0016033970638555785
1.15447e-05	0.0015761341809497067
1.15450e-05	0.001548973501441709
1.15453e-05	0.001522029424666269
1.15455e-05	0.0014950853478908287
1.15458e-05	0.0014681412711155712
1.15460e-05	0.0014411971943401312
1.15463e-05	0.001414253117564691
1.15465e-05	0.0013873090407894334
1.15468e-05	0.0013625305567896802
1.15470e-05	0.0013423416786323712
1.15473e-05	0.0013221528004751988
1.15475e-05	0.0013019639223178898
1.15478e-05	0.0012817750441605805
1.15480e-05	0.0012615861660034082
1.15483e-05	0.0012413972878460992
1.15485e-05	0.0012235731861512883
1.15488e-05	0.0012107608262719608
1.15490e-05	0.0011979484663925467
1.15493e-05	0.00118663719148687
1.15495e-05	0.0011785072110718192
1.15498e-05	0.0011703772306567134
1.15500e-05	0.0011638139199794608
1.15503e-05	0.0011605708995542352
1.15505e-05	0.0011573278791289876
1.15508e-05	0.001156522108027727
1.15510e-05	0.0011608816726552218
1.15513e-05	0.0011652412372827462
1.15515e-05	0.0011696008019102706
1.15517e-05	0.0011739603665377656
1.15520e-05	0.00117831993116529
1.15523e-05	0.0011826794957928144
1.15525e-05	0.0011870390604203094
1.15528e-05	0.0011939918294547307
1.15530e-05	0.0012064404545117562
1.15532e-05	0.0012188890795686975
1.15535e-05	0.0012313377046257229
1.15538e-05	0.0012437863296827483
1.15540e-05	0.0012562349547397737
1.15543e-05	0.001268683579796715
1.15545e-05	0.0012811322048537405
1.15548e-05	0.001294464580564574
1.15550e-05	0.0013096699155916989
1.15553e-05	0.0013248752506189265
1.15555e-05	0.0013400805856461544
1.15558e-05	0.0013552859206732793
1.15560e-05	0.001370491255700507
1.15563e-05	0.0013851597709738739
1.15565e-05	0.0013986905880118514
1.15568e-05	0.0014122214050499204
1.15570e-05	0.0014257522220879897
1.15573e-05	0.0014392830391259672
1.15575e-05	0.0014528138561640364
1.15578e-05	0.0014649021629368592
1.15580e-05	0.0014739333143581866
1.15583e-05	0.001482964465779575
1.15585e-05	0.001489431765459497
1.15588e-05	0.001490465417101995
1.15590e-05	0.0014890359640084172
1.15593e-05	0.001482386379033301
1.15595e-05	0.0014734508129700704
1.15598e-05	0.001459670498494726
1.15600e-05	0.0014435460760703353
1.15602e-05	0.0014224537152312305
1.15605e-05	0.001398510619068225
1.15608e-05	0.001368525873871227
1.15610e-05	0.0013358289274807544
1.15613e-05	0.0012973839316006274
1.15615e-05	0.001256599119642485
1.15617e-05	0.0012108554651607281
1.15620e-05	0.001162997037920739
1.15623e-05	0.0011106567092273492
1.15625e-05	0.0010561456641712697
1.15628e-05	0.0009970341546995385
1.15630e-05	0.0009361001488809527
1.15633e-05	0.0008713036717903854
1.15635e-05	0.0008051793458105135
1.15638e-05	0.0007362408697770047
1.15640e-05	0.0006661858417465539
1.15643e-05	0.0005937644715176711
1.15645e-05	0.0005213431012882978
1.15648e-05	0.0004482648143374063
1.15650e-05	0.00037379430403905906
1.15653e-05	0.0002993237937402072
1.15655e-05	0.0002248532834413553
1.15658e-05	0.00015082158895673832
1.15660e-05	7.816081677305225e-05
1.15663e-05	6.9627136422722825e-06
1.15665e-05	-6.249283061645513e-05
1.15668e-05	-0.00012986838197106044
1.15670e-05	-0.00019472039801544976
1.15673e-05	-0.00025656639722376225
1.15675e-05	-0.0003149239723284631
1.15678e-05	-0.00036931080476395895
1.15680e-05	-0.00041925884232726636
1.15683e-05	-0.00046437829728794246
1.15685e-05	-0.0005044320376971854
1.15687e-05	-0.0005393049979281005
1.15690e-05	-0.0005689098009768367
1.15693e-05	-0.0005931533123589493
1.15695e-05	-0.0006119424789116123
1.15698e-05	-0.0006251842616791141
1.15700e-05	-0.0006327947017489244
1.15702e-05	-0.0006347388011466847
1.15705e-05	-0.0006310772653584457
1.15708e-05	-0.0006219472059412436
1.15710e-05	-0.0006075029982062767
1.15713e-05	-0.0005878954955236719
1.15715e-05	-0.0005632756303580603
1.15718e-05	-0.0005337943165139213
1.15720e-05	-0.0004996080823220583
1.15723e-05	-0.00046090422989095706
1.15725e-05	-0.00041792987070408196
1.15728e-05	-0.00037098005089172
1.15730e-05	-0.00032036060559444005
1.15733e-05	-0.00026637515641539876
1.15735e-05	-0.00020932729474064425
1.15738e-05	-0.0001495206363937961
1.15740e-05	-8.726229189907897e-05
1.15743e-05	-2.2878579859700976e-05
1.15745e-05	4.326666698328668e-05
1.15748e-05	0.00011089123510691482
1.15750e-05	0.00017949632676207683
1.15753e-05	0.00024823281603555286
1.15755e-05	0.0003172477575329483
1.15758e-05	0.00038626269902987604
1.15760e-05	0.00045465472833050254
1.15763e-05	0.0005217266010938382
1.15765e-05	0.000587650267756841
1.15768e-05	0.0006511405067288492
1.15770e-05	0.0007128945439513947
1.15772e-05	0.0007709689966324681
1.15775e-05	0.0008267191679435491
1.15778e-05	0.0008775434199007868
1.15780e-05	0.0009256272562786509
1.15783e-05	0.0009679032475694586
1.15785e-05	0.0010075353717171815
1.15787e-05	0.0010415642687788948
1.15790e-05	0.0010728876077180601
1.15793e-05	0.0010984769760241605
1.15795e-05	0.0011211832893534654
1.15798e-05	0.0011377794576330007
1.15800e-05	0.0011514228187029217
1.15803e-05	0.0011588082067196476
1.15805e-05	0.0011634921978623777
1.15808e-05	0.001162451037431615
1.15810e-05	0.0011588607295835282
1.15813e-05	0.0011498679370107326
1.15815e-05	0.0011384056951979603
1.15818e-05	0.001121709875402772
1.15820e-05	0.0011026918362015115
1.15823e-05	0.0010787522476286815
1.15825e-05	0.0010528387902878716
1.15828e-05	0.00102274205355148
1.15830e-05	0.000990585859432171
1.15833e-05	0.0009540649953937533
1.15835e-05	0.0009175441313555832
1.15838e-05	0.0008790615401899692
1.15840e-05	0.0008364214017724869
1.15843e-05	0.0007937812633552934
1.15845e-05	0.0007499532683483738
1.15848e-05	0.000703607813175503
1.15850e-05	0.0006572623580029462
1.15853e-05	0.0006109169028300753
1.15855e-05	0.0005640009937227612
1.15857e-05	0.0005169603561405395
1.15860e-05	0.00046991971855799903
1.15863e-05	0.00042348164099569036
1.15865e-05	0.00037832058699201264
1.15868e-05	0.00033384899406470835
1.15870e-05	0.00029143508280597344
1.15872e-05	0.00025098287742808447
1.15875e-05	0.0002128076358437647
1.15878e-05	0.0001772244469104175
1.15880e-05	0.0001444267537807962
1.15883e-05	0.00011411731963171829
1.15885e-05	8.550307571516885e-05
1.15888e-05	5.800339070669892e-05
1.15890e-05	3.159458494264045e-05
1.15893e-05	6.470808091002922e-06
1.15895e-05	-1.717382564995967e-05
1.15898e-05	-3.9145322294039505e-05
1.15900e-05	-5.932589898496795e-05
1.15903e-05	-7.79051314029102e-05
1.15905e-05	-9.53831535515088e-05
1.15908e-05	-0.00011212699313504945
1.15910e-05	-0.0001281547863920238
1.15913e-05	-0.00014334822158644934
1.15915e-05	-0.00015758900508627144
1.15918e-05	-0.00017075896322615711
1.15920e-05	-0.0001826587339105544
1.15923e-05	-0.00019352393596772975
1.15925e-05	-0.00020403482775076633
1.15928e-05	-0.00021379481912223869
1.15930e-05	-0.00022323237902409194
1.15933e-05	-0.00023198660022270663
1.15935e-05	-0.00024032762387875246
1.15938e-05	-0.0002477929455658026
1.15940e-05	-0.00025478561874513975
1.15942e-05	-0.0002607765937382337
1.15945e-05	-0.0002667675687313682
1.15948e-05	-0.0002724652845370381
1.15950e-05	-0.00027754148733377584
1.15953e-05	-0.00028261769013054796
1.15955e-05	-0.0002873395865407755
1.15957e-05	-0.0002913105907784799
1.15960e-05	-0.0002952815950162112
1.15963e-05	-0.00029899542910302696
1.15965e-05	-0.0003021642347606025
1.15968e-05	-0.00030533304041815653
1.15970e-05	-0.0003083655822833512
1.15973e-05	-0.00031110933619838294
1.15975e-05	-0.0003138530901133961
1.15978e-05	-0.0003164770572884131
1.15980e-05	-0.00031863786280596
1.15983e-05	-0.00031975559615860736
1.15985e-05	-0.00031865519215179886
1.15988e-05	-0.00031452611484563087
1.15990e-05	-0.00030726501553650164
1.15993e-05	-0.00029703120747889627
1.15995e-05	-0.0002839840352579252
1.15998e-05	-0.0002682826908363592
1.16000e-05	-0.00025000044298270293
1.16003e-05	-0.0002288748017617613
1.16005e-05	-0.00020434315774586442
1.16008e-05	-0.0001760712938174954
1.16010e-05	-0.000144167987288692
1.16013e-05	-0.00010890654523391126
1.16015e-05	-7.056025989661213e-05
1.16018e-05	-2.9402347713469895e-05
1.16020e-05	1.434784716002276e-05
1.16023e-05	6.0681292313783155e-05
1.16025e-05	0.00010977691797030283
1.16027e-05	0.00016167060007093927
1.16030e-05	0.0002161207001074511
1.16033e-05	0.00027278254608047056
1.16035e-05	0.00033151802683158464
1.16038e-05	0.00039180068899321056
1.16040e-05	0.0004529372608645002
1.16042e-05	0.0005158835492448455
1.16045e-05	0.0005788298376256174
1.16048e-05	0.0006422574639976347
1.16050e-05	0.0007067052044397543
1.16053e-05	0.0007711529448814371
1.16055e-05	0.0008356006853235566
1.16058e-05	0.0008989493989094055
1.16060e-05	0.0009599689118501216
1.16063e-05	0.001020988424791251
1.16065e-05	0.0010820079377323805
1.16068e-05	0.0011412278085411419
1.16070e-05	0.0011966336436965395
1.16073e-05	0.0012501920150145196
1.16075e-05	0.0012998350007008429
1.16078e-05	0.0013470711238236263
1.16080e-05	0.0013892063107826843
1.16083e-05	0.0014279680871812403
1.16085e-05	0.0014595804932003617
1.16088e-05	0.0014827303126203335
1.16090e-05	0.0015092081889476775
1.16093e-05	-0.012694975296480076
1.16095e-05	-0.036607693158948046
1.16098e-05	-0.021264582667926284
1.16100e-05	-0.008765212118138604
1.16103e-05	0.012644633516156824
1.16105e-05	0.0210296580285127
1.16108e-05	0.01662888440604246
1.16110e-05	0.004931255751971666
1.16113e-05	-0.011188374851727126
1.16115e-05	-0.017039506740113328
1.16118e-05	-0.01180787024380633
1.16120e-05	-0.001956148170298621
1.16123e-05	0.009931591229819797
1.16125e-05	0.01452903288714362
1.16127e-05	0.011527426873107312
1.16130e-05	0.004026325882764455
1.16133e-05	-0.006201236298041677
1.16135e-05	-0.009970064589356193
1.16138e-05	-0.006780652798250854
1.16140e-05	-0.0006875264524099627
1.16143e-05	0.006687051589780542
1.16145e-05	0.009499291860620103
1.16148e-05	0.0075551491226270185
1.16150e-05	0.0027959816132247534
1.16153e-05	-0.003667604038471605
1.16155e-05	-0.006082160154708672
1.16158e-05	-0.004135104768858342
1.16160e-05	-0.0003663267447271807
1.16163e-05	0.004208056393720853
1.16165e-05	0.005927804768649695
1.16168e-05	0.004671859796448086
1.16170e-05	0.0016567356420231975
1.16173e-05	-0.0024215179755723722
1.16175e-05	-0.003958774385649379
1.16178e-05	-0.0027592296284207757
1.16180e-05	-0.0004139496915819404
1.16183e-05	0.002439793505562707
1.16185e-05	0.0035077672434832862
1.16188e-05	0.002713161795793677
1.16190e-05	0.000817792980395532
1.16193e-05	-0.0017423252492248784
1.16195e-05	-0.002709666779737539
1.16198e-05	-0.0019617829161809514
1.16200e-05	-0.0004954775246032636
1.16203e-05	0.001289964389915504
1.16205e-05	0.0019574240693002805
1.16208e-05	0.0014588415114686448
1.16210e-05	0.0002714512852849411
1.16212e-05	-0.0013316282533953657
1.16215e-05	-0.0019363626952354188
1.16218e-05	-0.001466195474441559
1.16220e-05	-0.0005456431928405846
1.16223e-05	0.0005751027935689831
1.16225e-05	0.0009958061333217756
1.16228e-05	0.0006863776042890706
1.16230e-05	-5.424049193587387e-05
1.16233e-05	-0.0010549852702907703
1.16235e-05	-0.0014301735978772593
1.16238e-05	-0.0011319593915543962
1.16240e-05	-0.0005516320879165007
1.16243e-05	0.00015402089337941682
1.16245e-05	0.00042105789135083675
1.16248e-05	0.00023062279223901017
1.16250e-05	-0.00023004298287209861
1.16253e-05	-0.0008538150366604847
1.16255e-05	-0.0010859619506438862
1.16258e-05	-0.0008965988723618557
1.16260e-05	-0.0005309049572216399
1.16263e-05	-8.715191175399429e-05
1.16265e-05	8.13683853236205e-05
1.16268e-05	-3.717821491263474e-05
1.16270e-05	-0.0003255315077220309
1.16273e-05	-0.0007166247337098146
1.16275e-05	-0.0008630296998240629
1.16278e-05	-0.0007460979606646155
1.16280e-05	-0.0005193780606312564
1.16283e-05	-0.0002438960420713859
1.16285e-05	-0.00013995280541550064
1.16288e-05	-0.00021427891367397576
1.16290e-05	-0.0003933055566910392
1.16293e-05	-0.0006350935851007996
1.16295e-05	-0.0007221103925884789
1.16297e-05	-0.0006427810380628709
1.16300e-05	-0.0004933906822076819
1.16303e-05	-0.000312262255154694
1.16305e-05	-0.00023748014062633207
1.16308e-05	-0.0002733419975242601
1.16310e-05	-0.00037384793580097356
1.16313e-05	-0.0005128140944371831
1.16315e-05	-0.000554072470319775
1.16318e-05	-0.0004904732374582199
1.16320e-05	-0.00038242745708182
1.16323e-05	-0.0002540348489523908
1.16325e-05	-0.00019188047244840764
1.16328e-05	-0.00019874145475851923
1.16330e-05	-0.0002458897502578281
1.16333e-05	-0.00031701207394435214
1.16335e-05	-0.00032690586139246626
1.16338e-05	-0.0002711893639448386
1.16340e-05	-0.00018779933463345825
1.16343e-05	-9.192470863389876e-05
1.16345e-05	-3.789196139777929e-05
1.16348e-05	-2.7527787034517628e-05
1.16350e-05	-4.292478154690211e-05
1.16353e-05	-7.395338646218666e-05
1.16355e-05	-6.73347674939238e-05
1.16358e-05	-2.041867483261698e-05
1.16360e-05	4.29378804987802e-05
1.16363e-05	0.00011312865222357046
1.16365e-05	0.00015603371641422075
1.16368e-05	0.0001704205541662852
1.16370e-05	0.00016741763168122458
1.16373e-05	0.0001532806448176286
1.16375e-05	0.00016129211357158776
1.16378e-05	0.00019301932282968847
1.16380e-05	0.00023359567362238792
1.16382e-05	0.0002779449645603576
1.16385e-05	0.0003064446708444665
1.16388e-05	0.00031950323651116624
1.16390e-05	0.00032428771971693913
1.16393e-05	0.000324591111261455
1.16395e-05	0.0003411123334395075
1.16398e-05	0.00037468287546827436
1.16400e-05	0.0004158405749809613
1.16403e-05	0.0004612564796484852
1.16405e-05	0.0004984906031926709
1.16408e-05	0.0005276509069179272
1.16410e-05	0.0005530786765800995
1.16413e-05	0.0005770015508956456
1.16415e-05	0.000612236154366512
1.16418e-05	0.0006591537781784441
1.16420e-05	0.0007128314320566284
1.16423e-05	0.0007680030104803059
1.16425e-05	0.0008189019412630346
1.16428e-05	0.0008655804241865368
1.16430e-05	0.000909969693303425
1.16433e-05	0.0009538717447056809
1.16435e-05	0.0010047679532099378
1.16438e-05	0.0010627173618705699
1.16440e-05	0.0011243746064491075
1.16443e-05	0.0011867947557828826
1.16445e-05	0.0012447330330013382
1.16448e-05	0.0013010054056047547
1.16450e-05	0.0013542189125836544
1.16453e-05	0.0014062954441574314
1.16455e-05	0.0014625320510863536
1.16458e-05	0.0015203149512955818
