Time(s)	Current(A)
9.25000e-06	0.00511791043467837
9.25025e-06	0.00511405818182995
9.25050e-06	0.005110205928981503
9.25075e-06	0.005106353676133057
9.25100e-06	0.005102501423284637
9.25125e-06	0.005098649170436191
9.25150e-06	0.005094796917587744
9.25175e-06	0.0050909446647393235
9.25200e-06	0.005087092411890877
9.25225e-06	0.005083240159042431
9.25250e-06	0.005079387906194011
9.25275e-06	0.005075535653345564
9.25300e-06	0.005071683400497118
9.25325e-06	0.005067831147648698
9.25350e-06	0.0050639788948002515
9.25375e-06	0.005060126641951805
9.25400e-06	0.005056274389103384
9.25425e-06	0.005052422136254939
9.25450e-06	0.005047711687940922
9.25475e-06	0.005040318034436418
9.25500e-06	0.005032924380931864
9.25525e-06	0.005025530727427311
9.25550e-06	0.005018137073922808
9.25575e-06	0.005010743420418254
9.25600e-06	0.0050033497669137
9.25625e-06	0.004995956113409147
9.25650e-06	0.004988562459904643
9.25675e-06	0.004981168806400089
9.25700e-06	0.004973775152895536
9.25725e-06	0.004966381499391033
9.25750e-06	0.004958987845886479
9.25775e-06	0.004951594192381926
9.25800e-06	0.004944200538877422
9.25825e-06	0.004936806885372868
9.25850e-06	0.004930488917215965
9.25875e-06	0.004927534150828862
9.25900e-06	0.00492457938444174
9.25925e-06	0.004921624618054617
9.25950e-06	0.004918669851667515
9.25975e-06	0.004915715085280392
9.26000e-06	0.00491276031889327
9.26025e-06	0.004909805552506168
9.26050e-06	0.004906850786119046
9.26075e-06	0.004903896019731923
9.26100e-06	0.004900941253344821
9.26125e-06	0.004897986486957698
9.26150e-06	0.004895031720570576
9.26175e-06	0.004892076954183473
9.26200e-06	0.0048891221877963515
9.26225e-06	0.004886167421409229
9.26250e-06	0.004885766417139114
9.26275e-06	0.004893349919947639
9.26300e-06	0.004900933422756164
9.26325e-06	0.004908516925564638
9.26350e-06	0.004916100428373163
9.26375e-06	0.004923683931181688
9.26400e-06	0.004931267433990161
9.26425e-06	0.004938850936798686
9.26450e-06	0.004946434439607211
9.26475e-06	0.004954017942415736
9.26500e-06	0.00496160144522421
9.26525e-06	0.004969184948032735
9.26550e-06	0.0049767684508412605
9.26575e-06	0.004984351953649734
9.26600e-06	0.0049919354564582595
9.26625e-06	0.005001592129447752
9.26650e-06	0.005011968411740902
9.26675e-06	0.005022344694034123
9.26700e-06	0.005032720976327345
9.26725e-06	0.0050430972586204955
9.26750e-06	0.005053473540913716
9.26775e-06	0.005063849823206937
9.26800e-06	0.005074226105500088
9.26825e-06	0.005084602387793309
9.26850e-06	0.00509497867008653
9.26875e-06	0.005105354952379681
9.26900e-06	0.005115731234672902
9.26925e-06	0.005126107516966123
9.26950e-06	0.005136483799259274
9.26975e-06	0.005143765371611048
9.27000e-06	0.005141371127536225
9.27025e-06	0.005138976883461418
9.27050e-06	0.005136582639386594
9.27075e-06	0.00513418839531177
9.27100e-06	0.0051317941512369625
9.27125e-06	0.0051293999071621394
9.27150e-06	0.0051270056630873155
9.27175e-06	0.005124611419012508
9.27200e-06	0.005122217174937684
9.27225e-06	0.005119822930862861
9.27250e-06	0.005117428686788054
9.27275e-06	0.00511503444271323
9.27300e-06	0.005112640198638406
9.27325e-06	0.005110245954563583
9.27350e-06	0.00510384566987093
9.27375e-06	0.0050849202327880655
9.27400e-06	0.005065994795705201
9.27425e-06	0.0050470693586224654
9.27450e-06	0.005028143921539601
9.27475e-06	0.005009218484456737
9.27500e-06	0.004990293047374001
9.27525e-06	0.004971367610291138
9.27550e-06	0.004952442173208274
9.27575e-06	0.004933516736125538
9.27600e-06	0.004914591299042674
9.27625e-06	0.0048956658619598095
9.27650e-06	0.004876740424877074
9.27675e-06	0.0048578149877942095
9.27700e-06	0.004838889550711345
9.27725e-06	0.004820277087953162
9.27750e-06	0.004802643160233211
9.27775e-06	0.00478500923251326
9.27800e-06	0.004767375304793429
9.27825e-06	0.004749741377073478
9.27850e-06	0.004732107449353528
9.27875e-06	0.004714473521633697
9.27900e-06	0.004696839593913746
9.27925e-06	0.004679205666193795
9.27950e-06	0.004661571738473963
9.27975e-06	0.004643937810754012
9.28000e-06	0.0046263038830340626
9.28025e-06	0.004608669955314231
9.28050e-06	0.00459103602759428
9.28075e-06	0.004578091668970796
9.28100e-06	0.004579809559982705
9.28125e-06	0.004581527450994626
9.28150e-06	0.004583245342006547
9.28175e-06	0.004584963233018468
9.28200e-06	0.0045866811240303776
9.28225e-06	0.004588399015042298
9.28250e-06	0.0045901169060542195
9.28275e-06	0.004591834797066129
9.28300e-06	0.004593552688078049
9.28325e-06	0.004595270579089971
9.28350e-06	0.00459698847010188
9.28375e-06	0.0045987063611138005
9.28400e-06	0.004600424252125722
9.28425e-06	0.004605916395677034
9.28450e-06	0.004623208990781065
9.28475e-06	0.004640501585885096
9.28500e-06	0.00465779418098901
9.28525e-06	0.004675086776093041
9.28550e-06	0.004692379371197071
9.28575e-06	0.004709671966300986
9.28600e-06	0.004726964561405016
9.28625e-06	0.004744257156509047
9.28650e-06	0.0047615497516129614
9.28675e-06	0.004778842346716992
9.28700e-06	0.004796134941821023
9.28725e-06	0.004813520989511045
9.28750e-06	0.004830939475131793
9.28775e-06	0.00484835796075254
9.28800e-06	0.00486577644637317
9.28825e-06	0.004883194931993917
9.28850e-06	0.004900613417614664
9.28875e-06	0.004918031903235294
9.28900e-06	0.004935450388856041
9.28925e-06	0.004952868874476789
9.28950e-06	0.004970287360097418
9.28975e-06	0.004987705845718166
9.29000e-06	0.005002092757777156
9.29025e-06	0.005007001253492846
9.29050e-06	0.005011909749208503
9.29075e-06	0.005016818244924193
9.29100e-06	0.0050217267406398826
9.29125e-06	0.00502663523635554
9.29150e-06	0.0050315437320712295
9.29175e-06	0.00503645222778692
9.29200e-06	0.005041360723502576
9.29225e-06	0.005046269219218267
9.29250e-06	0.005051177714933957
9.29275e-06	0.005056086210649614
9.29300e-06	0.005060994706365303
9.29325e-06	0.0050659032020809935
9.29350e-06	0.00507081169779665
9.29375e-06	0.00507572019351234
9.29400e-06	0.005080628689228031
9.29425e-06	0.005085537184943687
9.29450e-06	0.005083792733384917
9.29475e-06	0.00507973900552821
9.29500e-06	0.00507568527767153
9.29525e-06	0.005071631549814823
9.29550e-06	0.0050675778219581155
9.29575e-06	0.005063524094101436
9.29600e-06	0.005059470366244728
9.29625e-06	0.005055416638388021
9.29650e-06	0.0050513629105313415
9.29675e-06	0.005047309182674634
9.29700e-06	0.005043255454817926
9.29725e-06	0.0050392017269612465
9.29750e-06	0.005035147999104539
9.29775e-06	0.005031094271247832
9.29800e-06	0.005027040543391152
9.29825e-06	0.005022986815534445
9.29850e-06	0.005018933087677737
9.29875e-06	0.005015763110587045
9.29900e-06	0.005015356239037262
9.29925e-06	0.0050149493674874765
9.29950e-06	0.005014542495937691
9.29975e-06	0.005014135624387908
9.30000e-06	0.005013728752838123
9.30025e-06	0.005013321881288338
9.30050e-06	0.005012915009738554
9.30075e-06	0.005012508138188769
9.30100e-06	0.005012101266638984
9.30125e-06	0.005011694395089201
9.30150e-06	0.0050112875235394155
9.30175e-06	0.00501088065198963
9.30200e-06	0.005010473780439847
9.30225e-06	0.005010066908890062
9.30250e-06	0.005009660037340277
9.30275e-06	0.005012173897754378
9.30300e-06	0.005023819620888667
9.30325e-06	0.005035465344022956
9.30350e-06	0.005047111067157167
9.30375e-06	0.005058756790291456
9.30400e-06	0.0050704025134257445
9.30425e-06	0.005082048236559955
9.30450e-06	0.005093693959694244
9.30475e-06	0.005105339682828534
9.30500e-06	0.0051169854059627436
9.30525e-06	0.005128631129097032
9.30550e-06	0.005140276852231322
9.30575e-06	0.005151922575365532
9.30600e-06	0.005163568298499821
9.30625e-06	0.00517521402163411
9.30650e-06	0.00518685974476832
9.30675e-06	0.005198924676078783
9.30700e-06	0.0052123002896304615
9.30725e-06	0.005225675903182141
9.30750e-06	0.00523905151673373
9.30775e-06	0.005252427130285409
9.30800e-06	0.005265802743837088
9.30825e-06	0.005279178357388677
9.30850e-06	0.005292553970940356
9.30875e-06	0.0053059295844920355
9.30900e-06	0.005319305198043624
9.30925e-06	0.005332680811595303
9.30950e-06	0.005346056425146983
9.30975e-06	0.005359432038698571
9.31000e-06	0.005370319916928394
9.31025e-06	0.005379288268055345
9.31050e-06	0.005388256619182235
9.31075e-06	0.005397224970309185
9.31100e-06	0.0054061933214361365
9.31125e-06	0.005415161672563027
9.31150e-06	0.005424130023689977
9.31175e-06	0.005433098374816928
9.31200e-06	0.005442066725943819
9.31225e-06	0.005451035077070769
9.31250e-06	0.00546000342819772
9.31275e-06	0.0054689717793246105
9.31300e-06	0.005477940130451561
9.31325e-06	0.0048174898888826345
9.31350e-06	9.189502368523242e-06
9.31375e-06	-0.004680219315703751
9.31400e-06	-0.005028300055677055
9.31425e-06	-0.003293380161405327
9.31450e-06	0.000420503067720335
9.31475e-06	0.004472746300747808
9.31500e-06	0.005757459026525512
9.31525e-06	0.0048360712814186505
9.31550e-06	0.002432427604554599
9.31575e-06	-0.00031289813495299413
9.31600e-06	-0.0011857032424122053
9.31625e-06	6.297995490642141e-05
9.31650e-06	0.002321197623344231
9.31675e-06	0.004646610471001208
9.31700e-06	0.00577881739607034
9.31725e-06	0.005348266983425502
9.31750e-06	0.0043537850364181105
9.31775e-06	0.0027657987381242448
9.31800e-06	0.0022233371131280743
9.31825e-06	0.0029714748404708457
9.31850e-06	0.004270971586723792
9.31875e-06	0.00561682181184913
9.31900e-06	0.0061753986093021854
9.31925e-06	0.0058928049324079475
9.31950e-06	0.005078844468392976
9.31975e-06	0.004130835291917842
9.32000e-06	0.0038740594315680808
9.32025e-06	0.004346211810764063
9.32050e-06	0.00515570464291673
9.32075e-06	0.005993431308631543
9.32100e-06	0.006337267219746421
9.32125e-06	0.006153537004689325
9.32150e-06	0.0056363816219214624
9.32175e-06	0.005034740404411779
9.32200e-06	0.0048655935421135525
9.32225e-06	0.0051525544342165925
9.32250e-06	0.005650344068763091
9.32275e-06	0.006165370770781299
9.32300e-06	0.006370631751678549
9.32325e-06	0.006245104888542511
9.32350e-06	0.0059104670946169575
9.32375e-06	0.005522708373897719
9.32400e-06	0.0054056982636058
9.32425e-06	0.005574246065690964
9.32450e-06	0.005874733269828172
9.32475e-06	0.0061859312994512385
9.32500e-06	0.006303058601551208
9.32525e-06	0.006213009006549991
9.32550e-06	0.005992059493327151
9.32575e-06	0.005737974172627832
9.32600e-06	0.00565366188478115
9.32625e-06	0.0057484274007645435
9.32650e-06	0.0059260762561876784
9.32675e-06	0.006110711688778856
9.32700e-06	0.006174107373909588
9.32725e-06	0.006108109518262301
9.32750e-06	0.005960552813393988
9.32775e-06	0.005792724351751117
9.32800e-06	0.005731767074854239
9.32825e-06	0.005783543841617358
9.32850e-06	0.005887835163621734
9.32875e-06	0.005997141129500407
9.32900e-06	0.006031188968881565
9.32925e-06	0.0059849228132026625
9.32950e-06	0.00588835601510082
9.32975e-06	0.005779921062582389
9.33000e-06	0.005739165533402436
9.33025e-06	0.005769476152355046
9.33050e-06	0.005832887257756345
9.33075e-06	0.005899565330444795
9.33100e-06	0.005919218413651712
9.33125e-06	0.005888676640380021
9.33150e-06	0.005826738236559377
9.33175e-06	0.005757472258169121
9.33200e-06	0.005730699164934542
9.33225e-06	0.005748530294632355
9.33250e-06	0.005787174113162382
9.33275e-06	0.005827936207069367
9.33300e-06	0.005839307756164664
9.33325e-06	0.005819300002158063
9.33350e-06	0.005779683351002201
9.33375e-06	0.005735530528910157
9.33400e-06	0.005718040735645367
9.33425e-06	0.005728527545362914
9.33450e-06	0.0057520802972292695
9.33475e-06	0.005767778379917618
9.33500e-06	0.005782318653613802
9.33525e-06	0.005770348852316798
9.33550e-06	0.005744153214688115
9.33575e-06	0.005716578615898806
9.33600e-06	0.005705117319912334
9.33625e-06	0.005711066297522723
9.33650e-06	0.005725191206345721
9.33675e-06	0.005740106570208781
9.33700e-06	0.005738036173416981
9.33725e-06	0.005733808900250787
9.33750e-06	0.005720615468156618
9.33775e-06	0.0057062835002762565
9.33800e-06	0.005691951532395896
9.33825e-06	0.005693863298699735
9.33850e-06	0.005699187620606519
9.33875e-06	0.005704683355119337
9.33900e-06	0.005710179089632118
9.33925e-06	0.005703883111054651
9.33950e-06	0.005693001100488172
9.33975e-06	0.005681726881928953
9.34000e-06	0.005674765930336893
9.34025e-06	0.005674627722066819
9.34050e-06	0.005674489513796747
9.34075e-06	0.005669586173365032
9.34100e-06	0.005664077749582129
9.34125e-06	0.005658569325799225
9.34150e-06	0.005653060902016359
9.34175e-06	0.005645456038248441
9.34200e-06	0.005637584965509065
9.34225e-06	0.005629713892769742
9.34250e-06	0.005621842820030367
9.34275e-06	0.005611885616481163
9.34300e-06	0.005601663513034496
9.34325e-06	0.00559144140958776
9.34350e-06	0.005581219306141024
9.34375e-06	0.005570997202694357
9.34400e-06	0.005559606175134784
9.34425e-06	0.005548066715906268
9.34450e-06	0.005536527256677831
9.34475e-06	0.005524987797449315
9.34500e-06	0.0055134483382208
9.34525e-06	0.005499876884514544
9.34550e-06	0.005486047405220106
9.34575e-06	0.0054722179259256674
9.34600e-06	0.005458388446631322
9.34625e-06	0.005444558967336884
9.34650e-06	0.0054307294880424455
9.34675e-06	0.005416900008748101
9.34700e-06	0.005403070529453662
9.34725e-06	0.0053892410501592235
9.34750e-06	0.005375411570864879
9.34775e-06	0.005361582091570441
9.34800e-06	0.0053477526122760015
9.34825e-06	0.005333923132981657
9.34850e-06	0.005320093653687219
9.34875e-06	0.0053062641743927795
9.34900e-06	0.005293043471745618
9.34925e-06	0.00528078573448783
9.34950e-06	0.005268527997230042
9.34975e-06	0.005256270259972253
9.35000e-06	0.005244012522714548
9.35025e-06	0.0052317547854567594
9.35050e-06	0.005219497048198972
9.35075e-06	0.0052072393109412664
9.35100e-06	0.005194981573683478
9.35125e-06	0.00518272383642569
9.35150e-06	0.005170466099167985
9.35175e-06	0.005158208361910196
9.35200e-06	0.005145950624652408
9.35225e-06	0.005133692887394703
9.35250e-06	0.005121435150136915
9.35275e-06	0.005109177412879126
9.35300e-06	0.0050920904064905665
9.35325e-06	0.0050743901725454265
9.35350e-06	0.0050566899386002865
9.35375e-06	0.005038989704655266
9.35400e-06	0.005021289470710126
9.35425e-06	0.005003589236764986
9.35450e-06	0.004985889002819966
9.35475e-06	0.004968188768874826
9.35500e-06	0.004950488534929686
9.35525e-06	0.004932788300984666
9.35550e-06	0.004915088067039526
9.35575e-06	0.004897387833094386
9.35600e-06	0.004879687599149365
9.35625e-06	0.004861916930210015
9.35650e-06	0.004844034846908824
9.35675e-06	0.004826152763607754
9.35700e-06	0.004808270680306563
9.35725e-06	0.004790388597005372
9.35750e-06	0.004772506513704302
9.35775e-06	0.004754624430403111
9.35800e-06	0.0047367423471019205
9.35825e-06	0.00471886026380073
9.35850e-06	0.004700978180499659
9.35875e-06	0.004683096097198468
9.35900e-06	0.004665214013897277
9.35925e-06	0.004647331930596208
9.35950e-06	0.004629449847295017
9.35975e-06	0.004625253144594944
9.36000e-06	0.004622794231254502
9.36025e-06	0.004620335317914044
9.36050e-06	0.004617876404573586
9.36075e-06	0.004615417491233145
9.36100e-06	0.004612958577892686
9.36125e-06	0.004610499664552228
9.36150e-06	0.004608040751211786
9.36175e-06	0.004605581837871329
9.36200e-06	0.0046031229245308706
9.36225e-06	0.004611359281823838
9.36250e-06	0.004636513461939048
9.36275e-06	0.004661667642054258
9.36300e-06	0.004686821822169298
9.36325e-06	0.004711976002284507
9.36350e-06	0.004737130182399718
9.36375e-06	0.004762284362514757
9.36400e-06	0.004787438542629968
9.36425e-06	0.004812592722745177
9.36450e-06	0.004837746902860217
9.36475e-06	0.004862901082975427
9.36500e-06	0.004903968042480321
9.36525e-06	0.0049470556296544715
9.36550e-06	0.004990143216828913
9.36575e-06	0.005033230804003356
9.36600e-06	0.005076318391177505
9.36625e-06	0.005119405978351948
9.36650e-06	0.005162493565526389
9.36675e-06	0.005205581152700832
9.36700e-06	0.005248668739874982
9.36725e-06	0.005290776324138779
9.36750e-06	0.0053327594662200125
9.36775e-06	0.005374742608300963
9.36800e-06	0.005416725750382196
9.36825e-06	0.005458708892463431
9.36850e-06	0.005500692034544381
9.36875e-06	0.005542675176625615
9.36900e-06	0.005584658318706849
9.36925e-06	0.0056266414607877985
9.36950e-06	0.0056492321656301005
9.36975e-06	0.005669360390831273
9.37000e-06	0.005689488616032309
9.37025e-06	0.005709616841233481
9.37050e-06	0.005729745066434653
9.37075e-06	0.005749873291635689
9.37100e-06	0.005770001516836861
9.37125e-06	0.005790129742038033
9.37150e-06	0.005810257967239069
9.37175e-06	0.005830386192440242
9.37200e-06	0.005850514417641414
9.37225e-06	0.005870642642842449
9.37250e-06	0.005890770868043621
9.37275e-06	0.005910899093244794
9.37300e-06	0.005923795506033587
9.37325e-06	0.005925252608373432
9.37350e-06	0.005926709710713276
9.37375e-06	0.005928166813053111
9.37400e-06	0.005929623915392956
9.37425e-06	0.0059310810177328
9.37450e-06	0.005932538120072635
9.37475e-06	0.00593399522241248
9.37500e-06	0.005935452324752324
9.37525e-06	0.005936909427092169
9.37550e-06	0.005938366529432004
9.37575e-06	0.005939823631771848
9.37600e-06	0.005941280734111693
9.37625e-06	0.005942737836451527
9.37650e-06	0.005944194938791372
9.37675e-06	0.005939520940894529
9.37700e-06	0.005934068407049369
9.37725e-06	0.005928615873204172
9.37750e-06	0.0059231633393589745
9.37775e-06	0.005917710805513815
9.37800e-06	0.005912258271668617
9.37825e-06	0.005906805737823421
9.37850e-06	0.00590135320397826
9.37875e-06	0.0058959006701330635
9.37900e-06	0.005890448136287866
9.37925e-06	0.0058849956024427065
9.37950e-06	0.005879543068597509
9.37975e-06	0.005874090534752312
9.38000e-06	0.005868638000907152
9.38025e-06	0.005863185467061955
9.38050e-06	0.005857732933216757
9.38075e-06	0.005852280399371598
9.38100e-06	0.0058468278655264
9.38125e-06	0.0058413753316812035
9.38150e-06	0.005835922797836043
9.38175e-06	0.0058304702639908465
9.38200e-06	0.005825017730145649
9.38225e-06	0.005813932581512469
9.38250e-06	0.005802132195331537
9.38275e-06	0.005790331809150605
9.38300e-06	0.005778531422969754
9.38325e-06	0.005766731036788822
9.38350e-06	0.00575493065060789
9.38375e-06	0.005743130264426958
9.38400e-06	0.0057313298782461055
9.38425e-06	0.005719529492065174
9.38450e-06	0.005707729105884242
9.38475e-06	0.00569592871970339
9.38500e-06	0.005684128333522458
9.38525e-06	0.005672327947341527
9.38550e-06	0.005660527561160675
9.38575e-06	0.005648727174979743
9.38600e-06	0.0056369267887988106
9.38625e-06	0.005625126402617959
9.38650e-06	0.005613326016437027
9.38675e-06	0.005601525630256095
9.38700e-06	0.005589725244075243
9.38725e-06	0.005577924857894312
9.38750e-06	0.00556612447171338
9.38775e-06	0.005557159218098642
9.38800e-06	0.005548553973705351
9.38825e-06	0.005539948729312061
9.38850e-06	0.005531343484918828
9.38875e-06	0.005522738240525538
9.38900e-06	0.005514132996132248
9.38925e-06	0.005505527751739015
9.38950e-06	0.005496922507345725
9.38975e-06	0.0054883172629524345
9.39000e-06	0.005479712018559202
9.39025e-06	0.005471106774165911
9.39050e-06	0.0054625015297726206
9.39075e-06	0.005453896285379388
9.39100e-06	0.005445291040986098
9.39125e-06	0.0054366857965928075
9.39150e-06	0.005428080552199575
9.39175e-06	0.005419475307806285
9.39200e-06	0.005410870063412994
9.39225e-06	0.005407252902002605
9.39250e-06	0.005411525910658435
9.39275e-06	0.005415798919314294
9.39300e-06	0.005420071927970153
9.39325e-06	0.005424344936625983
9.39350e-06	0.005428617945281842
9.39375e-06	0.005432890953937701
9.39400e-06	0.005437163962593531
9.39425e-06	0.00544143697124939
9.39450e-06	0.005445709979905249
9.39475e-06	0.005449982988561078
9.39500e-06	0.005454255997216937
9.39525e-06	0.005458529005872796
9.39550e-06	0.005462802014528627
9.39575e-06	0.005467075023184486
9.39600e-06	0.005471348031840345
9.39625e-06	0.005475621040496175
9.39650e-06	0.005479894049152034
9.39675e-06	0.005484167057807892
9.39700e-06	0.005491066036005614
9.39725e-06	0.005498298463602664
9.39750e-06	0.005505530891199713
9.39775e-06	0.005512763318796714
9.39800e-06	0.005519995746393763
9.39825e-06	0.005527228173990813
9.39850e-06	0.005534460601587814
9.39875e-06	0.005541693029184864
9.39900e-06	0.005548925456781914
9.39925e-06	0.005556157884378915
9.39950e-06	0.005563390311975965
9.39975e-06	0.005570622739573015
9.40000e-06	0.005573153427700751
9.40025e-06	0.005568246885101545
9.40050e-06	0.005563340342502338
9.40075e-06	0.005558433799903131
