Time(s)	Current(A)
1.48000e-05	-0.008853622794728197
1.48003e-05	-0.008838015173621361
1.48005e-05	-0.008822407552514525
1.48008e-05	-0.008817599862566226
1.48010e-05	-0.008813101057129404
1.48013e-05	-0.00880860225169258
1.48015e-05	-0.008804103446255788
1.48018e-05	-0.008799604640818965
1.48020e-05	-0.008795105835382141
1.48023e-05	-0.008790607029945349
1.48025e-05	-0.008786108224508525
1.48028e-05	-0.008781609419071702
1.48030e-05	-0.00877711061363491
1.48033e-05	-0.008772611808198086
1.48035e-05	-0.008768113002761264
1.48038e-05	-0.00876361419732447
1.48040e-05	-0.008759115391887649
1.48043e-05	-0.008754616586450825
1.48045e-05	-0.008750117781014033
1.48048e-05	-0.00874561897557721
1.48050e-05	-0.008741120170140386
1.48053e-05	-0.008737741427986508
1.48055e-05	-0.008734394720314627
1.48058e-05	-0.008731048012642746
1.48060e-05	-0.008727701304970888
1.48063e-05	-0.008724354597299007
1.48065e-05	-0.008721007889627127
1.48068e-05	-0.008717661181955268
1.48070e-05	-0.008714314474283388
1.48073e-05	-0.008710967766611507
1.48075e-05	-0.008707621058939649
1.48078e-05	-0.008704274351267768
1.48080e-05	-0.008700927643595887
1.48083e-05	-0.008693622787110259
1.48085e-05	-0.008686204725193282
1.48088e-05	-0.008678786663276254
1.48090e-05	-0.008671368601359229
1.48093e-05	-0.008663950539442251
1.48095e-05	-0.008656532477525224
1.48098e-05	-0.008649114415608198
1.48100e-05	-0.008641696353691221
1.48103e-05	-0.008634278291774194
1.48105e-05	-0.008626860229857168
1.48108e-05	-0.008619442167940191
1.48110e-05	-0.008612024106023164
1.48113e-05	-0.008601831625467429
1.48115e-05	-0.00859155979487366
1.48118e-05	-0.00858128796427982
1.48120e-05	-0.008571016133685983
1.48123e-05	-0.008560744303092215
1.48125e-05	-0.008550472472498375
1.48128e-05	-0.008540200641904538
1.48130e-05	-0.00852992881131077
1.48133e-05	-0.008519824091620892
1.48135e-05	-0.008509906163605406
1.48138e-05	-0.008499988235589988
1.48140e-05	-0.008490070307574505
1.48143e-05	-0.00848015237955902
1.48145e-05	-0.008470234451543603
1.48148e-05	-0.00846031652352812
1.48150e-05	-0.008450398595512634
1.48153e-05	-0.008440480667497216
1.48155e-05	-0.008432164253122033
1.48158e-05	-0.00842389364299816
1.48160e-05	-0.008418023772098222
1.48163e-05	-0.00841222256378093
1.48165e-05	-0.008406421355463637
1.48168e-05	-0.008407818894015267
1.48170e-05	-0.008409422321047893
1.48173e-05	-0.008411025748080529
1.48175e-05	-0.008424714556983568
1.48178e-05	-0.008438749015061345
1.48180e-05	-0.008452783473139215
1.48183e-05	-0.008466817931217088
1.48185e-05	-0.008480852389294863
1.48188e-05	-0.008494886847372733
1.48190e-05	-0.008517299786112325
1.48193e-05	-0.008549077945161984
1.48195e-05	-0.00858085610421186
1.48198e-05	-0.008612634263261733
1.48200e-05	-0.008644412422311391
1.48203e-05	-0.008676190581361265
1.48205e-05	-0.00870796874041114
1.48208e-05	-0.008753496870406089
1.48210e-05	-0.008799418257823065
1.48213e-05	-0.008845339645240041
1.48215e-05	-0.008891261032656705
1.48218e-05	-0.00893718242007368
1.48220e-05	-0.008983103807490657
1.48223e-05	-0.009029025194907322
1.48225e-05	-0.009079894481224059
1.48228e-05	-0.009130905280419144
1.48230e-05	-0.009181916079613883
1.48233e-05	-0.009232926878808969
1.48235e-05	-0.009283937678004053
1.48238e-05	-0.009334948477198794
1.48240e-05	-0.00938595927639388
1.48243e-05	-0.009433570111633779
1.48245e-05	-0.009481083705863473
1.48248e-05	-0.00952859730009349
1.48250e-05	-0.009562760375803961
1.48253e-05	-0.009596541618671272
1.48255e-05	-0.009630322861538355
1.48258e-05	-0.009664104104405664
1.48260e-05	-0.009697885347272976
1.48263e-05	-0.009731666590140058
1.48265e-05	-0.009765447833007368
1.48268e-05	-0.00979922907587468
1.48270e-05	-0.009833010318741762
1.48273e-05	-0.009845373488882387
1.48275e-05	-0.009857124089286604
1.48278e-05	-0.009868874689690743
1.48280e-05	-0.009880625290094962
1.48283e-05	-0.00989237589049918
1.48285e-05	-0.009904126490903319
1.48288e-05	-0.009915877091307538
1.48290e-05	-0.009927627691711755
1.48293e-05	-0.009939378292115894
1.48295e-05	-0.009933581257898323
1.48298e-05	-0.009927282350797165
1.48300e-05	-0.009920983443696048
1.48303e-05	-0.00991468453659489
1.48305e-05	-0.009908385629493732
1.48308e-05	-0.009902086722392615
1.48310e-05	-0.009895787815291457
1.48313e-05	-0.009889488908190297
1.48315e-05	-0.009883190001089183
1.48318e-05	-0.009876891093988024
1.48320e-05	-0.009861329579935331
1.48323e-05	-0.009845503149763688
1.48325e-05	-0.009829676719591939
1.48328e-05	-0.00981385028942019
1.48330e-05	-0.009798023859248547
1.48333e-05	-0.009782197429076798
1.48335e-05	-0.009766370998905047
1.48338e-05	-0.009750544568733298
1.48340e-05	-0.009734718138561655
1.48343e-05	-0.009718891708389906
1.48345e-05	-0.009703317620674006
1.48348e-05	-0.009687750750103929
1.48350e-05	-0.009672183879533745
1.48353e-05	-0.009656617008963564
1.48355e-05	-0.009641050138393486
1.48358e-05	-0.009628110882315525
1.48360e-05	-0.009615246777589428
1.48363e-05	-0.009602382672863417
1.48365e-05	-0.009589518568137318
1.48368e-05	-0.009576654463411221
1.48370e-05	-0.00956379035868521
1.48373e-05	-0.009550926253959114
1.48375e-05	-0.009538062149233015
1.48378e-05	-0.009525198044507004
1.48380e-05	-0.009512333939780907
1.48383e-05	-0.009499469835054808
1.48385e-05	-0.009483492049792973
1.48388e-05	-0.009467425211398461
1.48390e-05	-0.00945135837300395
1.48393e-05	-0.009435291534609548
1.48395e-05	-0.009419224696215036
1.48398e-05	-0.009403157857820523
1.48400e-05	-0.00938709101942612
1.48403e-05	-0.009371024181031608
1.48405e-05	-0.009354957342637096
1.48408e-05	-0.009338890504242693
1.48410e-05	-0.009322823665848181
1.48413e-05	-0.009304042330398532
1.48415e-05	-0.009285183358703554
1.48418e-05	-0.009266324387008449
1.48420e-05	-0.009247465415313344
1.48423e-05	-0.009228606443618238
1.48425e-05	-0.009209747471923262
1.48428e-05	-0.009190888500228155
1.48430e-05	-0.00917202952853305
1.48433e-05	-0.009153170556838073
1.48435e-05	-0.009136156945612957
1.48438e-05	-0.009119196112805204
1.48440e-05	-0.009102235279997565
1.48443e-05	-0.009085274447189814
1.48445e-05	-0.00906831361438206
1.48448e-05	-0.009051352781574422
1.48450e-05	-0.00903439194876667
1.48453e-05	-0.009017431115958917
1.48455e-05	-0.009000470283151278
1.48458e-05	-0.008987202887563899
1.48460e-05	-0.008974041126498574
1.48463e-05	-0.00896087936543334
1.48465e-05	-0.008943907870102297
1.48468e-05	-0.008926827414083849
1.48470e-05	-0.008909746958065517
1.48473e-05	-0.008886431431129308
1.48475e-05	-0.008862937577421199
1.48478e-05	-0.00883944372371325
1.48480e-05	-0.008806929322056904
1.48483e-05	-0.00877415692731307
1.48485e-05	-0.00874138453256946
1.48488e-05	-0.008708612137825627
1.48490e-05	-0.008675839743081795
1.48493e-05	-0.00863664117448947
1.48495e-05	-0.008590259616959847
1.48498e-05	-0.008543878059430224
1.48500e-05	-0.008497496501900915
1.48503e-05	-0.008451114944371292
1.48505e-05	-0.00840473338684167
1.48508e-05	-0.008348097524824153
1.48510e-05	-0.008291168383541504
1.48513e-05	-0.00823423924225847
1.48515e-05	-0.008177310100975433
1.48518e-05	-0.008120380959692784
1.48520e-05	-0.008058642372207186
1.48523e-05	-0.007996766231672309
1.48525e-05	-0.007934890091137849
1.48528e-05	-0.007873013950602971
1.48530e-05	-0.007811137810068094
1.48533e-05	-0.007748637830452059
1.48535e-05	-0.007686120008663271
1.48538e-05	-0.007625219958251853
1.48540e-05	-0.007564366177073671
1.48543e-05	-0.007505447972087576
1.48545e-05	-0.007448044673782772
1.48548e-05	-0.007392371740455038
1.48550e-05	-0.007338798347171486
1.48553e-05	-0.0072877124281662325
1.48555e-05	-0.007239504155806865
1.48558e-05	-0.007194562848824649
1.48560e-05	-0.007153317638836365
1.48563e-05	-0.007116413835742375
1.48565e-05	-0.0070845766919692245
1.48568e-05	-0.0070581659671575285
1.48570e-05	-0.007037230758280836
1.48573e-05	-0.007024447048997977
1.48575e-05	-0.007011892122200187
1.48578e-05	-0.007010033002471328
1.48580e-05	-0.007008479789247508
1.48583e-05	-0.007020892709327761
1.48585e-05	-0.007033705069207146
1.48588e-05	-0.007046517429086618
1.48590e-05	-0.007080739179650592
1.48593e-05	-0.007115573251644421
1.48595e-05	-0.007150407323638012
1.48598e-05	-0.00718524139563184
1.48600e-05	-0.007220075467625668
1.48603e-05	-0.00727729060418986
1.48605e-05	-0.007335145852641093
1.48608e-05	-0.007393001101092326
1.48610e-05	-0.007450856349543167
1.48613e-05	-0.0075087115979944
1.48615e-05	-0.007579732265537883
1.48618e-05	-0.007651129471973
1.48620e-05	-0.007722526678408601
1.48623e-05	-0.007799923846596085
1.48625e-05	-0.00787749261729228
1.48628e-05	-0.007955061387988998
1.48630e-05	-0.008035177878863192
1.48633e-05	-0.008115367236063906
1.48635e-05	-0.008195556593265164
1.48638e-05	-0.00827415753000869
1.48640e-05	-0.008352713036972683
1.48643e-05	-0.008431268543937206
1.48645e-05	-0.008505552398051959
1.48648e-05	-0.008579714080329374
1.48650e-05	-0.008646372037805881
1.48653e-05	-0.008712815384246673
1.48655e-05	-0.008779258730687016
1.48658e-05	-0.008832778618264292
1.48660e-05	-0.00888592888715674
1.48663e-05	-0.008939079156048826
1.48665e-05	-0.008970051555397438
1.48668e-05	-0.00900038965435776
1.48670e-05	-0.009030727753317877
1.48673e-05	-0.0090610658522782
1.48675e-05	-0.009091403951238522
1.48678e-05	-0.009121742050198637
1.48680e-05	-0.00915208014915896
1.48683e-05	-0.009152008194778807
1.48685e-05	-0.009151066494609787
1.48688e-05	-0.009150124794440773
1.48690e-05	-0.009149183094271752
1.48693e-05	-0.009148241394102733
1.48695e-05	-0.009147299693933719
1.48698e-05	-0.009146357993764698
1.48700e-05	-0.009121240203433802
1.48703e-05	-0.009095430962405044
1.48705e-05	-0.009069621721376112
1.48708e-05	-0.009043812480347179
1.48710e-05	-0.009018003239318421
1.48713e-05	-0.008992193998289488
1.48715e-05	-0.008959427869443946
1.48718e-05	-0.00891888553512606
1.48720e-05	-0.008878343200807898
1.48723e-05	-0.008837800866489737
1.48725e-05	-0.008797258532171852
1.48728e-05	-0.008756716197853691
1.48730e-05	-0.00871617386353553
1.48733e-05	-0.008671512440787893
1.48735e-05	-0.00862673320963695
1.48738e-05	-0.008581953978486004
1.48740e-05	-0.008537833294445097
1.48743e-05	-0.008493731445246755
1.48745e-05	-0.008449629596048414
1.48748e-05	-0.008408285224241776
1.48750e-05	-0.008367019717944426
1.48753e-05	-0.008329375918941647
1.48755e-05	-0.008291835702943012
1.48758e-05	-0.008259056673896217
1.48760e-05	-0.008226413817655945
1.48763e-05	-0.008201591132891586
1.48765e-05	-0.008176992109728267
1.48768e-05	-0.008152393086564949
1.48770e-05	-0.008138523371261619
1.48773e-05	-0.008124960520607554
1.48775e-05	-0.008111397669953398
1.48778e-05	-0.008115524561041847
1.48780e-05	-0.008120157389369151
1.48783e-05	-0.008124790217696486
1.48785e-05	-0.008129423046023822
1.48788e-05	-0.008134055874351126
1.48790e-05	-0.00813868870267846
1.48793e-05	-0.008154203089436566
1.48795e-05	-0.008181880563550018
1.48798e-05	-0.008209558037663659
1.48800e-05	-0.008237235511777298
1.48803e-05	-0.00826491298589075
1.48805e-05	-0.008292590460004391
1.48808e-05	-0.00832026793411803
1.48810e-05	-0.008364389481659382
1.48813e-05	-0.008408981339578054
1.48815e-05	-0.008453573197496725
1.48818e-05	-0.008498165055415095
1.48820e-05	-0.008542756913333765
1.48823e-05	-0.008587348771252437
1.48825e-05	-0.008631940629170805
1.48828e-05	-0.008682216239301311
1.48830e-05	-0.008732654408159091
1.48833e-05	-0.008783092577016528
1.48835e-05	-0.008833530745874306
1.48838e-05	-0.008883968914732086
1.48840e-05	-0.008934407083589523
1.48843e-05	-0.008984845252447301
1.48845e-05	-0.009031334035731696
1.48848e-05	-0.009077709864216077
1.48850e-05	-0.00912408569270077
1.48853e-05	-0.009165328505618086
1.48855e-05	-0.009206424511206856
1.48858e-05	-0.00924178690143503
1.48860e-05	-0.009276985306820047
1.48863e-05	-0.009303438194516107
1.48865e-05	-0.009329640955152737
1.48868e-05	-0.009340470473752137
1.48870e-05	-0.009350860308394594
1.48873e-05	-0.009361250143036981
1.48875e-05	-0.009353254380599765
1.48878e-05	-0.009344732779042015
1.48880e-05	-0.009336211177484321
1.48883e-05	-0.00930836595665769
1.48885e-05	-0.00927996806871245
1.48888e-05	-0.009251570180767403
1.48890e-05	-0.009198841864424954
1.48893e-05	-0.009145417683215284
1.48895e-05	-0.009091993502005976
1.48898e-05	-0.009038569320796306
1.48900e-05	-0.008973202866683808
1.48903e-05	-0.008894487689638414
1.48905e-05	-0.008815772512592485
1.48908e-05	-0.008737057335546557
1.48910e-05	-0.008658342158501161
1.48913e-05	-0.008563415112973418
1.48915e-05	-0.008468024398268428
1.48918e-05	-0.008372633683564085
1.48920e-05	-0.008270222741982665
1.48923e-05	-0.008167611017695394
1.48925e-05	-0.008061859725898164
1.48928e-05	-0.007954449535898205
1.48930e-05	-0.007846020229299507
1.48933e-05	-0.00773720360442445
1.48935e-05	-0.007628632482013133
1.48938e-05	-0.007520940148469153
1.48940e-05	-0.007414743605460425
1.48943e-05	-0.00731057246755699
1.48945e-05	-0.007208898632298417
1.48948e-05	-0.007110302879658075
1.48950e-05	-0.007015468293128071
1.48953e-05	-0.006925094373185644
1.48955e-05	-0.006839879197892641
1.48958e-05	-0.006760522151659506
1.48960e-05	-0.006687609026672307
1.48963e-05	-0.0066209835369140475
1.48965e-05	-0.006559768823213505
1.48968e-05	-0.006503523451622696
1.48970e-05	-0.006452425649729503
1.48973e-05	-0.0064067502201219624
1.48975e-05	-0.006366776494832426
1.48978e-05	-0.006335792830324852
1.48980e-05	-0.00630506174649983
1.48983e-05	-0.006285626315011223
1.48985e-05	-0.0062665139459656075
1.48988e-05	-0.006259178840874501
1.48990e-05	-0.00625218057260795
1.48993e-05	-0.0062451823043413995
1.48995e-05	-0.006256322753439138
1.48998e-05	-0.006267981980750765
1.49000e-05	-0.006279641208062392
1.49003e-05	-0.00629130043537394
1.49005e-05	-0.0063029596626855665
1.49008e-05	-0.006332260588397098
1.49010e-05	-0.006362066077281385
1.49013e-05	-0.006391871566165874
1.49015e-05	-0.006421677055050363
1.49018e-05	-0.006451482543934651
1.49020e-05	-0.006491333683064019
1.49023e-05	-0.006531472133825655
1.49025e-05	-0.006571610584587291
1.49028e-05	-0.006615592874023317
1.49030e-05	-0.006659685099555054
1.49033e-05	-0.006703777325086791
1.49035e-05	-0.006749189059308988
1.49038e-05	-0.006794638532272798
1.49040e-05	-0.006840088005236608
1.49043e-05	-0.006884646538205807
1.49045e-05	-0.006929179589756195
1.49048e-05	-0.006971069474052144
1.49050e-05	-0.007012883762176302
1.49053e-05	-0.007050746993999817
1.49055e-05	-0.00708849722323928
1.49058e-05	-0.007121056187786146
1.49060e-05	-0.007153466679044052
1.49063e-05	-0.007179360360740061
1.49065e-05	-0.007205067657766998
1.49068e-05	-0.007221451171175061
1.49070e-05	-0.007237568018769641
1.49073e-05	-0.0072536848663641105
1.49075e-05	-0.007258231264581797
1.49078e-05	-0.007262446740995384
1.49080e-05	-0.007266662217408942
1.49083e-05	-0.007258932397740588
1.49085e-05	-0.007250860935427236
1.49088e-05	-0.007242789473113938
1.49090e-05	-0.007220544761115106
1.49093e-05	-0.007197894685659599
1.49095e-05	-0.007175244610204246
1.49098e-05	-0.007152594534748739
1.49100e-05	-0.0071228513343722264
1.49103e-05	-0.007085179646670144
1.49105e-05	-0.007047507958967806
1.49108e-05	-0.007009836271265469
1.49110e-05	-0.00697216458356313
1.49113e-05	-0.0069250649881575
1.49115e-05	-0.006877695748926549
1.49118e-05	-0.0068303265096955985
1.49120e-05	-0.006778554255274842
1.49123e-05	-0.006726656071973751
1.49125e-05	-0.00667282140705404
1.49128e-05	-0.006617999673395547
1.49130e-05	-0.0065625251903603165
1.49133e-05	-0.006506714090171294
1.49135e-05	-0.006450882556842939
1.49138e-05	-0.0063953481325288095
1.49140e-05	-0.006340424776519935
1.49143e-05	-0.00628642227010362
1.49145e-05	-0.006233655257882714
1.49148e-05	-0.006182464331552276
1.49150e-05	-0.006133207118519057
1.49153e-05	-0.006086242617739139
1.49155e-05	-0.006043399588156481
1.49158e-05	-0.006000672603909205
1.49160e-05	-0.005965060086378764
1.49163e-05	-0.005929651046871454
1.49165e-05	-0.005894242007364384
1.49168e-05	-0.005863882382346687
1.49170e-05	-0.005833667173617579
1.49173e-05	-0.005803451964888676
1.49175e-05	-0.005782200460153351
1.49178e-05	-0.005761205322738589
1.49180e-05	-0.005740210185323969
1.49183e-05	-0.005719215047909207
1.49185e-05	-0.005698219910494445
1.49188e-05	-0.005677224773079826
1.49190e-05	-0.005656229635665064
1.49193e-05	-0.005644679458158366
1.49195e-05	-0.005633399412180705
1.49198e-05	-0.005622119366203121
1.49200e-05	-0.00561083932022546
1.49203e-05	-0.0055995592742478
1.49205e-05	-0.005588279228270216
1.49208e-05	-0.005576999182292555
1.49210e-05	-0.005572078362804788
1.49213e-05	-0.005567339421016143
1.49215e-05	-0.005562600479227465
1.49218e-05	-0.005557861537438788
1.49220e-05	-0.005553122595650142
1.49223e-05	-0.005548383653861465
1.49225e-05	-0.0055436447120727865
1.49228e-05	-0.005540715727959693
1.49230e-05	-0.0055398098615354495
1.49233e-05	-0.0055389039951112065
1.49235e-05	-0.005537998128686969
1.49238e-05	-0.005537092262262725
1.49240e-05	-0.005536186395838482
1.49243e-05	-0.005535280529414244
1.49245e-05	-0.005534374662990001
1.49248e-05	-0.005534252443481364
1.49250e-05	-0.005534152636745452
1.49253e-05	-0.005534052830009539
1.49255e-05	-0.005533854935367762
1.49258e-05	-0.0055335926663289455
1.49260e-05	-0.005533335879793627
1.49263e-05	-0.005533620292951274
1.49265e-05	-0.005535340340792717
1.49268e-05	-0.005538943549705561
1.49270e-05	-0.005545233343101368
1.49273e-05	-0.0055515984672375555
1.49275e-05	-0.005561112665865385
1.49278e-05	-0.0055707169299161075
1.49280e-05	-0.005584241993920887
1.49283e-05	-0.00559787919516046
1.49285e-05	-0.005611516396400125
1.49288e-05	-0.005633149753906596
1.49290e-05	-0.005655011806287486
1.49293e-05	-0.005676873858668525
1.49295e-05	-0.005698735911049564
1.49298e-05	-0.005720597963430454
1.49300e-05	-0.005750666713995506
1.49303e-05	-0.005780970181060601
1.49305e-05	-0.005811273648125492
1.49308e-05	-0.005841577115190588
1.49310e-05	-0.005871880582255684
1.49313e-05	-0.005908601246840414
1.49315e-05	-0.005945505447131055
1.49318e-05	-0.0059824096474216945
1.49320e-05	-0.006019313847712085
1.49323e-05	-0.0060562180480027246
1.49325e-05	-0.006093122248293365
1.49328e-05	-0.006131826361656257
1.49330e-05	-0.006170581953615018
1.49333e-05	-0.006209337545573779
1.49335e-05	-0.006248093137532278
1.49338e-05	-0.006286848729491039
1.49340e-05	-0.0063256043214498
1.49343e-05	-0.006361570595174666
1.49345e-05	-0.006397457092721895
1.49348e-05	-0.006433343590269125
1.49350e-05	-0.006459585028581021
1.49353e-05	-0.006485550612402158
1.49355e-05	-0.006511516196223296
1.49358e-05	-0.006537481780044258
1.49360e-05	-0.006563447363865395
1.49363e-05	-0.006589412947686533
1.49365e-05	-0.006615378531507671
1.49368e-05	-0.0066413441153286325
1.49370e-05	-0.006667309699149771
1.49373e-05	-0.006680417568161006
1.49375e-05	-0.006693157698800659
1.49378e-05	-0.006705897829440397
1.49380e-05	-0.006718637960080136
1.49383e-05	-0.006731378090719787
1.49385e-05	-0.0067441182213595265
1.49388e-05	-0.006756858351999265
1.49390e-05	-0.006769598482638917
1.49393e-05	-0.006782338613278655
1.49395e-05	-0.006785510998074051
1.49398e-05	-0.006788409739587526
1.49400e-05	-0.0067913084811010195
1.49403e-05	-0.006794207222614514
1.49405e-05	-0.006797105964127988
1.49408e-05	-0.006800004705641482
1.49410e-05	-0.006802903447154976
1.49413e-05	-0.00680580218866845
1.49415e-05	-0.0068087009301819445
1.49418e-05	-0.006811599671695438
1.49420e-05	-0.006814498413208913
1.49423e-05	-0.006817397154722406
1.49425e-05	-0.006815255837824301
1.49428e-05	-0.00681297037222621
1.49430e-05	-0.006810684906628102
1.49433e-05	-0.006808399441029994
1.49435e-05	-0.006806113975431902
1.49438e-05	-0.006803828509833795
1.49440e-05	-0.0068015430442356865
1.49443e-05	-0.006799257578637595
1.49445e-05	-0.006796972113039487
1.49448e-05	-0.0067946866474413795
1.49450e-05	-0.006792401181843271
1.49453e-05	-0.006790115716245179
1.49455e-05	-0.006788820133672308
1.49458e-05	-0.00678755286234897
1.49460e-05	-0.00678628559102564
1.49463e-05	-0.006785018319702301
1.49465e-05	-0.006783751048378963
1.49468e-05	-0.006782483777055633
1.49470e-05	-0.006781216505732295
