Time(s)	Current(A)
9.25000e-06	-0.011532453986625103
9.25025e-06	-0.011528317221080055
9.25050e-06	-0.011524473808320713
9.25075e-06	-0.011530402269167976
9.25100e-06	-0.011536330730015198
9.25125e-06	-0.01154225919086246
9.25150e-06	-0.011548187651709722
9.25175e-06	-0.011554116112556944
9.25200e-06	-0.011563897804162995
9.25225e-06	-0.011577108256682926
9.25250e-06	-0.011590318709202766
9.25275e-06	-0.011603529161722696
9.25300e-06	-0.011616739614242626
9.25325e-06	-0.011629950066762467
9.25350e-06	-0.011643246476671464
9.25375e-06	-0.011659406212864609
9.25400e-06	-0.011675565949057642
9.25425e-06	-0.011691725685250785
9.25450e-06	-0.011707885421443928
9.25475e-06	-0.011724045157636963
9.25500e-06	-0.011740204893830106
9.25525e-06	-0.011755641167236097
9.25550e-06	-0.011770433674129473
9.25575e-06	-0.01178522618102295
9.25600e-06	-0.011798591853616662
9.25625e-06	-0.011810687871215768
9.25650e-06	-0.011822783888814793
9.25675e-06	-0.011832863841785675
9.25700e-06	-0.011841149818732029
9.25725e-06	-0.011849435795678325
9.25750e-06	-0.011855378978383067
9.25775e-06	-0.011859237447809708
9.25800e-06	-0.011863095917236322
9.25825e-06	-0.011863259007385198
9.25850e-06	-0.011860133799265642
9.25875e-06	-0.011857008591146108
9.25900e-06	-0.011853883383026554
9.25925e-06	-0.011850758174906998
9.25950e-06	-0.011847632966787465
9.25975e-06	-0.011839877528595846
9.26000e-06	-0.01182800192400604
9.26025e-06	-0.011816126319416313
9.26050e-06	-0.011804250714826506
9.26075e-06	-0.011792375110236699
9.26100e-06	-0.011780499505646972
9.26125e-06	-0.01176516354489094
9.26150e-06	-0.011746748418957379
9.26175e-06	-0.011728333293023942
9.26200e-06	-0.011709918167090383
9.26225e-06	-0.011691503041156822
9.26250e-06	-0.0116729851349017
9.26275e-06	-0.011651043513706513
9.26300e-06	-0.011629101892511326
9.26325e-06	-0.011607160271316289
9.26350e-06	-0.011585218650121102
9.26375e-06	-0.011563277028925916
9.26400e-06	-0.011540963653674664
9.26425e-06	-0.011518319476595464
9.26450e-06	-0.011495870943040424
9.26475e-06	-0.011473596501023345
9.26500e-06	-0.011451771743429075
9.26525e-06	-0.011430347133261333
9.26550e-06	-0.011409646699815887
9.26575e-06	-0.011389590668171677
9.26600e-06	-0.011370852725224083
9.26625e-06	-0.011353287671025978
9.26650e-06	-0.011335722616827991
9.26675e-06	-0.011319492242423124
9.26700e-06	-0.011304449520197934
9.26725e-06	-0.011289406797972848
9.26750e-06	-0.011274777576922128
9.26775e-06	-0.01126051630597724
9.26800e-06	-0.011246255035032448
9.26825e-06	-0.011231993764087558
9.26850e-06	-0.01121773249314267
9.26875e-06	-0.011203471222197878
9.26900e-06	-0.01118922020316658
9.26925e-06	-0.011175310685594105
9.26950e-06	-0.011161401168021723
9.26975e-06	-0.011147491650449246
9.27000e-06	-0.01113358213287677
9.27025e-06	-0.011119672615304388
9.27050e-06	-0.011105763097731912
9.27075e-06	-0.011091695421393698
9.27100e-06	-0.011077487008975031
9.27125e-06	-0.011063278596556269
9.27150e-06	-0.011049070184137505
9.27175e-06	-0.011034861771718838
9.27200e-06	-0.011020653359300076
9.27225e-06	-0.011006425398955728
9.27250e-06	-0.010992180044074935
9.27275e-06	-0.010977934689194046
9.27300e-06	-0.010963689334313157
9.27325e-06	-0.010949443979432268
9.27350e-06	-0.010935198624551475
9.27375e-06	-0.010921192197887083
9.27400e-06	-0.010907398379234453
9.27425e-06	-0.010893604560581917
9.27450e-06	-0.01088020621781874
9.27475e-06	-0.01086715978553224
9.27500e-06	-0.010854464230296653
9.27525e-06	-0.010842080899683278
9.27550e-06	-0.010829974278991307
9.27575e-06	-0.010818345504281589
9.27600e-06	-0.01080719141154536
9.27625e-06	-0.010796583328390334
9.27650e-06	-0.010786597347611325
9.27675e-06	-0.010777426469546618
9.27700e-06	-0.010769510369559622
9.27725e-06	-0.010763325931237118
9.27750e-06	-0.010759085697557434
9.27775e-06	-0.010756785258601666
9.27800e-06	-0.01075637103617821
9.27825e-06	-0.010758255946169934
9.27850e-06	-0.010761407076101156
9.27875e-06	-0.010766558500904928
9.27900e-06	-0.010773489869166526
9.27925e-06	-0.01078330652767116
9.27950e-06	-0.010795690634386597
9.27975e-06	-0.010808074741102116
9.28000e-06	-0.010824420440272564
9.28025e-06	-0.010844291324988941
9.28050e-06	-0.010864162209705451
9.28075e-06	-0.010884033094421963
9.28100e-06	-0.01090390397913834
9.28125e-06	-0.01092784464340034
9.28150e-06	-0.010955406762467057
9.28175e-06	-0.010982968881533772
9.28200e-06	-0.0110105310006003
9.28225e-06	-0.011038093119667016
9.28250e-06	-0.011067725216211532
9.28275e-06	-0.011099199262620449
9.28300e-06	-0.011130673309029579
9.28325e-06	-0.011162937321607853
9.28350e-06	-0.011195904278103868
9.28375e-06	-0.011228871234600106
9.28400e-06	-0.011261737987444198
9.28425e-06	-0.01129451557501671
9.28450e-06	-0.011327293162589444
9.28475e-06	-0.011359293761187347
9.28500e-06	-0.011390602963500559
9.28525e-06	-0.01142088885655
9.28550e-06	-0.011450264167537234
9.28575e-06	-0.011478161556789308
9.28600e-06	-0.01150474383137527
9.28625e-06	-0.011528788900208501
9.28650e-06	-0.011550576260518908
9.28675e-06	-0.011572363620829463
9.28700e-06	-0.011590720073798017
9.28725e-06	-0.011606023566343994
9.28750e-06	-0.011621327058890076
9.28775e-06	-0.01163310453275882
9.28800e-06	-0.01164174441228349
9.28825e-06	-0.011650384291808216
9.28850e-06	-0.011653791614272284
9.28875e-06	-0.01165254279536542
9.28900e-06	-0.011651293976458544
9.28925e-06	-0.01165004515755167
9.28950e-06	-0.011648796338644806
9.28975e-06	-0.011647214364626499
9.29000e-06	-0.01163453466177016
9.29025e-06	-0.01162185495891382
9.29050e-06	-0.011609175256057567
9.29075e-06	-0.011596495553201226
9.29100e-06	-0.011583815850344887
9.29125e-06	-0.011566604672522988
9.29150e-06	-0.011545361204596009
9.29175e-06	-0.01152411773666903
9.29200e-06	-0.011502874268742195
9.29225e-06	-0.011481630800815216
9.29250e-06	-0.01145770036374276
9.29275e-06	-0.011431378952610125
9.29300e-06	-0.011405057541477314
9.29325e-06	-0.011378736130344501
9.29350e-06	-0.011352414719211867
9.29375e-06	-0.01132527939159447
9.29400e-06	-0.011297419808097422
9.29425e-06	-0.011269571805514456
9.29450e-06	-0.011241734108097912
9.29475e-06	-0.011214105606338733
9.29500e-06	-0.01118693035558213
9.29525e-06	-0.01116036041384948
9.29550e-06	-0.011134577886068643
9.29575e-06	-0.01110975588966443
9.29600e-06	-0.011086065787990228
9.29625e-06	-0.011063678944399939
9.29650e-06	-0.011042771650295895
9.29675e-06	-0.011023683265417873
9.29700e-06	-0.011007085560494978
9.29725e-06	-0.010993679508948632
9.29750e-06	-0.010983779974365915
9.29775e-06	-0.01097739395250976
9.29800e-06	-0.01097445992180313
9.29825e-06	-0.01097579119784579
9.29850e-06	-0.010979483891854155
9.29875e-06	-0.01098687483983343
9.29900e-06	-0.010997556644102945
9.29925e-06	-0.011013364686520422
9.29950e-06	-0.011033734263431553
9.29975e-06	-0.011054103840342546
9.30000e-06	-0.01108159313313991
9.30025e-06	-0.011115417837727369
9.30050e-06	-0.0111492425423146
9.30075e-06	-0.01118306724690206
9.30100e-06	-0.011216891951489519
9.30125e-06	-0.011258000804513257
9.30150e-06	-0.011305591388076108
9.30175e-06	-0.011353181971638959
9.30200e-06	-0.011400772555201487
9.30225e-06	-0.011448363138764338
9.30250e-06	-0.01149971020940393
9.30275e-06	-0.011554399954511844
9.30300e-06	-0.011609089699620132
9.30325e-06	-0.011665223527196986
9.30350e-06	-0.011722642357889366
9.30375e-06	-0.011780061188582134
9.30400e-06	-0.011837389343183144
9.30425e-06	-0.011894636810521796
9.30450e-06	-0.011951884277860834
9.30475e-06	-0.012007866961561328
9.30500e-06	-0.012062724189512243
9.30525e-06	-0.012115844526782061
9.30550e-06	-0.012167419308319117
9.30575e-06	-0.012210748219793404
9.30600e-06	-0.012246739621842218
9.30625e-06	-0.012282731023891031
9.30650e-06	-0.012318722425939602
9.30675e-06	-0.012354713827988415
9.30700e-06	-0.012390705230037229
9.30725e-06	-0.012426696632086042
9.30750e-06	-0.012462688034134611
9.30775e-06	-0.012498679436183427
9.30800e-06	-0.012534036970409676
9.30825e-06	-0.012548279735560152
9.30850e-06	-0.012562522500710724
9.30875e-06	-0.012576765265861297
9.30900e-06	-0.012591008031011772
9.30925e-06	-0.012605250796162345
9.30950e-06	-0.012619493561312915
9.30975e-06	-0.012633736326463392
9.31000e-06	-0.012647979091613963
9.31025e-06	-0.012662221856764536
9.31050e-06	-0.01266838998856882
9.31075e-06	-0.012667372984317337
9.31100e-06	-0.012666355980065856
9.31125e-06	-0.01266533897581438
9.31150e-06	-0.012664321971562899
9.31175e-06	-0.012663304967311419
9.31200e-06	-0.012662287963059944
9.31225e-06	-0.012661270958808462
9.31250e-06	-0.01266025395455698
9.31275e-06	-0.012659236950305505
9.31300e-06	-0.01265437739882484
9.31325e-06	-0.012646098593062306
9.31350e-06	-0.012637819787299828
9.31375e-06	-0.012629540981537292
9.31400e-06	-0.012621262175774757
9.31425e-06	-0.012612983370012279
9.31450e-06	-0.012604704564249744
9.31475e-06	-0.012596425758487208
9.31500e-06	-0.01258814695272473
9.31525e-06	-0.012579868146962195
9.31550e-06	-0.012571432120026822
9.31575e-06	-0.012562856191318906
9.31600e-06	-0.012554280262611045
9.31625e-06	-0.012546183504482136
9.31650e-06	-0.012538513131757602
9.31675e-06	-0.012530000719818874
9.31700e-06	-0.01252073902725518
9.31725e-06	-0.012511477334691488
9.31750e-06	-0.012498780628080079
9.31775e-06	-0.012483027306730458
9.31800e-06	-0.012467273985380837
9.31825e-06	-0.012448507983736957
9.31850e-06	-0.012427061177047853
9.31875e-06	-0.012405614370358751
9.31900e-06	-0.012378924974299162
9.31925e-06	-0.01234757050970861
9.31950e-06	-0.012316216045118062
9.31975e-06	-0.012284861580527726
9.32000e-06	-0.012253507115937175
9.32025e-06	-0.01221615009119561
9.32050e-06	-0.012173451745117502
9.32075e-06	-0.012130753399039107
9.32100e-06	-0.01208805505296071
9.32125e-06	-0.012045356706882605
9.32150e-06	-0.01199851600753381
9.32175e-06	-0.011947989274334055
9.32200e-06	-0.011897462541134642
9.32225e-06	-0.011845278340968246
9.32250e-06	-0.0117916192595092
9.32275e-06	-0.011737168487064827
9.32300e-06	-0.011682013235889662
9.32325e-06	-0.011626314174566528
9.32350e-06	-0.01156992078126126
9.32375e-06	-0.011513302687717322
9.32400e-06	-0.011456788759378172
9.32425e-06	-0.011400707151733566
9.32450e-06	-0.011345384813294685
9.32475e-06	-0.011291101767536945
9.32500e-06	-0.011238036857940534
9.32525e-06	-0.011186346312666727
9.32550e-06	-0.011136278706788856
9.32575e-06	-0.011088162074560448
9.32600e-06	-0.011042343853589256
9.32625e-06	-0.010999171865712712
9.32650e-06	-0.01095898807339816
9.32675e-06	-0.01092198275957364
9.32700e-06	-0.010887986867434725
9.32725e-06	-0.010856662364291073
9.32750e-06	-0.010828585266380298
9.32775e-06	-0.010802339199243772
9.32800e-06	-0.010779078297463895
9.32825e-06	-0.01075847371682324
9.32850e-06	-0.010741090108658025
9.32875e-06	-0.01072657265236492
9.32900e-06	-0.010715592549258773
9.32925e-06	-0.01070776012640624
9.32950e-06	-0.010699927703553706
9.32975e-06	-0.010697461387872354
9.33000e-06	-0.01069977005186914
9.33025e-06	-0.010702078715865926
9.33050e-06	-0.010704387379862696
9.33075e-06	-0.010706696043859484
9.33100e-06	-0.010709315516412517
9.33125e-06	-0.010722288331882723
9.33150e-06	-0.010735261147353016
9.33175e-06	-0.010748233962823312
9.33200e-06	-0.010761206778293517
9.33225e-06	-0.01077417959376381
9.33250e-06	-0.010790209053693597
9.33275e-06	-0.010808958439765756
9.33300e-06	-0.010827707825837788
9.33325e-06	-0.010847604625860442
9.33350e-06	-0.010868522441327164
9.33375e-06	-0.010889440256793744
9.33400e-06	-0.010907706233947186
9.33425e-06	-0.010923612497876007
9.33450e-06	-0.010939518761804719
9.33475e-06	-0.01096504849703655
9.33500e-06	-0.0125850796012196
9.33525e-06	-0.0583884760493946
9.33550e-06	-0.035138855427298624
9.33575e-06	-0.019980311988662285
9.33600e-06	-0.0018211684593194893
9.33625e-06	0.010953844394751663
9.33650e-06	0.007828423965484521
9.33675e-06	-0.0032130788226706203
9.33700e-06	-0.01802225392855207
9.33725e-06	-0.029165024697522867
9.33750e-06	-0.025603267542486704
9.33775e-06	-0.015428472326275585
9.33800e-06	-0.004312605699057487
9.33825e-06	0.0035057211911250726
9.33850e-06	0.0014407451768630355
9.33875e-06	-0.005544542264542695
9.33900e-06	-0.01487030118635287
9.33925e-06	-0.02188912492636217
9.33950e-06	-0.019691805692672794
9.33975e-06	-0.013349665606424038
9.34000e-06	-0.00641691547460681
9.34025e-06	-0.0015490749032484432
9.34050e-06	-0.0028713392680234065
9.34075e-06	-0.007274599587323223
9.34100e-06	-0.013142700643175662
9.34125e-06	-0.01756453948951447
9.34150e-06	-0.016212539786135623
9.34175e-06	-0.012263757298245762
9.34200e-06	-0.007944676140943428
9.34225e-06	-0.004918664312630983
9.34250e-06	-0.005769495090855849
9.34275e-06	-0.008549352538645595
9.34300e-06	-0.012245739658223603
9.34325e-06	-0.015035133143026232
9.34350e-06	-0.014206940339251493
9.34375e-06	-0.011751490128141903
9.34400e-06	-0.009063520368415602
9.34425e-06	-0.007184920745373952
9.34450e-06	-0.007733999802979626
9.34475e-06	-0.009490465198199035
9.34500e-06	-0.01181999163184355
9.34525e-06	-0.013580307076160909
9.34550e-06	-0.013073610928706661
9.34575e-06	-0.011546773296464481
9.34600e-06	-0.009873487891017864
9.34625e-06	-0.008706356464281492
9.34650e-06	-0.009058981373221498
9.34675e-06	-0.010166974211068611
9.34700e-06	-0.011633354338517865
9.34725e-06	-0.012743149325760107
9.34750e-06	-0.012433204687720693
9.34775e-06	-0.01148466502783429
9.34800e-06	-0.010444818776441147
9.34825e-06	-0.00972241843965771
9.34850e-06	-0.009952297444702708
9.34875e-06	-0.010655552056921425
9.34900e-06	-0.011583454401954007
9.34925e-06	-0.012288120178185917
9.34950e-06	-0.012103612030340863
9.34975e-06	-0.011519268360624528
9.35000e-06	-0.01087790181442602
9.35025e-06	-0.010435518821230947
9.35050e-06	-0.010589712054281645
9.35075e-06	-0.011040425556676052
9.35100e-06	-0.01163180661287227
9.35125e-06	-0.012083270790672038
9.35150e-06	-0.01197767733734198
9.35175e-06	-0.01162155200518823
9.35200e-06	-0.011229614453425303
9.35225e-06	-0.010962191122380362
9.35250e-06	-0.011068278495654794
9.35275e-06	-0.011359864883119557
9.35300e-06	-0.011739279615816587
9.35325e-06	-0.012030732667238243
9.35350e-06	-0.011972914556205352
9.35375e-06	-0.011757823237143791
9.35400e-06	-0.011519934307774595
9.35425e-06	-0.011359639354559317
9.35450e-06	-0.011432863309504288
9.35475e-06	-0.011621786081215597
9.35500e-06	-0.0118651846013775
9.35525e-06	-0.012052910810741732
9.35550e-06	-0.012021260090857517
9.35575e-06	-0.011890480594832656
9.35600e-06	-0.011744776897912467
9.35625e-06	-0.011646999634107464
9.35650e-06	-0.01169476453477659
9.35675e-06	-0.011814089297579721
9.35700e-06	-0.011966136807304165
9.35725e-06	-0.012081332616777308
9.35750e-06	-0.012056923755280002
9.35775e-06	-0.011968320493194382
9.35800e-06	-0.011868393489128324
9.35825e-06	-0.011796632740639931
9.35850e-06	-0.011814298791935037
9.35875e-06	-0.011875164453632112
9.35900e-06	-0.011955021011261722
9.35925e-06	-0.012010406487403565
9.35950e-06	-0.011977082549491787
9.35975e-06	-0.011902413095191107
9.36000e-06	-0.011819638229864936
9.36025e-06	-0.011753614330741052
9.36050e-06	-0.0117428329964296
9.36075e-06	-0.011758453268103241
9.36100e-06	-0.01178542898164937
9.36125e-06	-0.011796656471464297
9.36150e-06	-0.011752020520926767
9.36175e-06	-0.011681313373781975
9.36200e-06	-0.011605477347320974
9.36225e-06	-0.011540203504669527
9.36250e-06	-0.011509719738504192
9.36275e-06	-0.011496077381066084
9.36300e-06	-0.011484527366284865
9.36325e-06	-0.011460142081652337
9.36350e-06	-0.011424786370730836
9.36375e-06	-0.011359485048029465
9.36400e-06	-0.011295513584549974
9.36425e-06	-0.01124153040283478
9.36450e-06	-0.011194886386616407
9.36475e-06	-0.011169671510499506
9.36500e-06	-0.011150558827591327
9.36525e-06	-0.011127108834896496
9.36550e-06	-0.01108377683963061
9.36575e-06	-0.011032450610643682
9.36600e-06	-0.010981542716269329
9.36625e-06	-0.010937404293347124
9.36650e-06	-0.010909736595007501
9.36675e-06	-0.010891723263045524
9.36700e-06	-0.01087999065047101
9.36725e-06	-0.01086815399138998
9.36750e-06	-0.010846459309585617
9.36775e-06	-0.010822724118723133
9.36800e-06	-0.010801897417648225
9.36825e-06	-0.010785348085541083
9.36850e-06	-0.010782475196109085
9.36875e-06	-0.0107877973308271
9.36900e-06	-0.010798275020232406
9.36925e-06	-0.01080875270963764
9.36950e-06	-0.010818166751869447
9.36975e-06	-0.01082696416042233
9.37000e-06	-0.010841573817650257
9.37025e-06	-0.010856183474878283
9.37050e-06	-0.010874542041303512
9.37075e-06	-0.010904338711517596
9.37100e-06	-0.010938158449051326
9.37125e-06	-0.010971978186585053
9.37150e-06	-0.011005300845771749
9.37175e-06	-0.011038670417165714
9.37200e-06	-0.011075642681614515
9.37225e-06	-0.011112614946063066
9.37250e-06	-0.011151790041691666
9.37275e-06	-0.01119741585030082
9.37300e-06	-0.011244690715510555
9.37325e-06	-0.011291965580720612
9.37350e-06	-0.011338466214683493
9.37375e-06	-0.011382918706830877
9.37400e-06	-0.011427856567838832
9.37425e-06	-0.011474078417657857
9.37450e-06	-0.011520300267476568
9.37475e-06	-0.011566286394687434
9.37500e-06	-0.011611648944210946
9.37525e-06	-0.01165701149373446
9.37550e-06	-0.01170017913194895
9.37575e-06	-0.011737540378793083
9.37600e-06	-0.011774901625637215
9.37625e-06	-0.011810688265897052
9.37650e-06	-0.011842309461272972
9.37675e-06	-0.011873930656648891
9.37700e-06	-0.011903061861656305
9.37725e-06	-0.011925606076779163
9.37750e-06	-0.011948150291902023
9.37775e-06	-0.011968143286687117
9.37800e-06	-0.011981387314579865
9.37825e-06	-0.011994631342472615
9.37850e-06	-0.0120057338543152
9.37875e-06	-0.012011171225946686
9.37900e-06	-0.012016608597578174
9.37925e-06	-0.012019491768275443
9.37950e-06	-0.01201561808724675
9.37975e-06	-0.012011744406218057
9.38000e-06	-0.012005856352872615
9.38025e-06	-0.01199463950378392
9.38050e-06	-0.011983422654695226
9.38075e-06	-0.011970424601100925
9.38100e-06	-0.011952714571022037
9.38125e-06	-0.011935004540943149
9.38150e-06	-0.011915627165147415
9.38175e-06	-0.011891839013505729
9.38200e-06	-0.011868050861864042
9.38225e-06	-0.011843229550294137
9.38250e-06	-0.011815675130160706
9.38275e-06	-0.011788120710027274
9.38300e-06	-0.011759778220162989
9.38325e-06	-0.011729350980327726
9.38350e-06	-0.011698923740492464
9.38375e-06	-0.011668163695761059
9.38400e-06	-0.011636523253052145
9.38425e-06	-0.011604882810343017
9.38450e-06	-0.011573480048919742
9.38475e-06	-0.011542706046646072
9.38500e-06	-0.011511932044372196
9.38525e-06	-0.01148176403995933
9.38550e-06	-0.011453199134832634
9.38575e-06	-0.011424634229705743
9.38600e-06	-0.011397269653394305
9.38625e-06	-0.011373080412163982
9.38650e-06	-0.011348891170933495
9.38675e-06	-0.011325491532312201
9.38700e-06	-0.011304180698719135
9.38725e-06	-0.011282869865125927
9.38750e-06	-0.011261233976187675
9.38775e-06	-0.01123873818983885
9.38800e-06	-0.011216242403489871
9.38825e-06	-0.011193808102589966
9.38850e-06	-0.011171536454540762
9.38875e-06	-0.011149264806491407
9.38900e-06	-0.01112653866004635
9.38925e-06	-0.011102610189136917
9.38950e-06	-0.011078681718227321
9.38975e-06	-0.011054158064764327
9.39000e-06	-0.011028059922696912
9.39025e-06	-0.011001961780629321
9.39050e-06	-0.010975598365467755
9.39075e-06	-0.010948533200127038
9.39100e-06	-0.010921468034786138
9.39125e-06	-0.010893852821639799
9.39150e-06	-0.010864782518795947
9.39175e-06	-0.0108357122159519
9.39200e-06	-0.010806396141631392
9.39225e-06	-0.010776429906470564
9.39250e-06	-0.01074646367130994
9.39275e-06	-0.01071646916306173
9.39300e-06	-0.010686399861535979
9.39325e-06	-0.01065633056001043
9.39350e-06	-0.01062627735370611
9.39375e-06	-0.010596266725502559
9.39400e-06	-0.010566256097299212
9.39425e-06	-0.010536573803096846
9.39450e-06	-0.010507760079622105
9.39475e-06	-0.01047934899216301
9.39500e-06	-0.010452003033065862
9.39525e-06	-0.010425087046312627
9.39550e-06	-0.010399308503108731
9.39575e-06	-0.010374324374048071
9.39600e-06	-0.010351441778389769
9.39625e-06	-0.010328559182731623
9.39650e-06	-0.010306802741613939
9.39675e-06	-0.010288025415864542
9.39700e-06	-0.010269248090115273
9.39725e-06	-0.010250961540879596
