Time(s)	Current(A)
9.30000e-06	-0.009012609401932431
9.30025e-06	-0.008995563870510532
9.30050e-06	-0.008978554890852938
9.30075e-06	-0.008961653807562362
9.30100e-06	-0.008944752724271785
9.30125e-06	-0.008927851640981322
9.30150e-06	-0.008910950557690745
9.30175e-06	-0.00889422801480346
9.30200e-06	-0.008878032501495521
9.30225e-06	-0.008861836988187472
9.30250e-06	-0.008845641474879425
9.30275e-06	-0.008829445961571486
9.30300e-06	-0.00881340817937737
9.30325e-06	-0.008797836000268512
9.30350e-06	-0.008782469793061113
9.30375e-06	-0.008767711589882468
9.30400e-06	-0.008753122241243088
9.30425e-06	-0.008739126304003031
9.30450e-06	-0.008725512995399969
9.30475e-06	-0.008712325562047062
9.30500e-06	-0.008699648742958097
9.30525e-06	-0.00868756567284842
9.30550e-06	-0.00867616225772019
9.30575e-06	-0.008665557430808045
9.30600e-06	-0.00865605484723928
9.30625e-06	-0.008648197703740753
9.30650e-06	-0.008642432562724385
9.30675e-06	-0.008638864948550054
9.30700e-06	-0.008637440833167863
9.30725e-06	-0.008638104112898138
9.30750e-06	-0.008640799828368352
9.30775e-06	-0.008645778488433589
9.30800e-06	-0.008653109859740986
9.30825e-06	-0.008661668814153685
9.30850e-06	-0.00867385144475223
9.30875e-06	-0.0086878543841056
9.30900e-06	-0.00870723065375063
9.30925e-06	-0.008726606923395792
9.30950e-06	-0.008745983193040952
9.30975e-06	-0.008765359462685982
9.31000e-06	-0.008791100197641505
9.31025e-06	-0.008818928116171016
9.31050e-06	-0.008846756034700337
9.31075e-06	-0.008874583953229848
9.31100e-06	-0.008903800885931443
9.31125e-06	-0.00893711801971551
9.31150e-06	-0.008970435153499804
9.31175e-06	-0.009004405002969854
9.31200e-06	-0.009040301589844733
9.31225e-06	-0.009076198176719853
9.31250e-06	-0.009112426502473403
9.31275e-06	-0.009149634081092473
9.31300e-06	-0.009186841659711793
9.31325e-06	-0.009223879558961617
9.31350e-06	-0.009260416585326968
9.31375e-06	-0.009296953611692565
9.31400e-06	-0.009333003202647188
9.31425e-06	-0.00936761394348739
9.31450e-06	-0.009401606532958144
9.31475e-06	-0.009433774414685363
9.31500e-06	-0.009464800338544683
9.31525e-06	-0.009492455341516173
9.31550e-06	-0.009520110344487664
9.31575e-06	-0.00954601922105874
9.31600e-06	-0.009566773744633906
9.31625e-06	-0.009587528268209211
9.31650e-06	-0.009606532344844649
9.31675e-06	-0.009620369314776476
9.31700e-06	-0.009634206284708397
9.31725e-06	-0.009646161934631265
9.31750e-06	-0.009652564156450001
9.31775e-06	-0.00965896637826878
9.31800e-06	-0.009662792865830645
9.31825e-06	-0.00965901609879353
9.31850e-06	-0.00965523933175639
9.31875e-06	-0.009651462564719248
9.31900e-06	-0.009647685797682132
9.31925e-06	-0.009643909030644991
9.31950e-06	-0.009631563959421899
9.31975e-06	-0.009616408970493708
9.32000e-06	-0.009601253981565415
9.32025e-06	-0.009586098992637121
9.32050e-06	-0.00957094400370893
9.32075e-06	-0.009553770665826291
9.32100e-06	-0.009530639407040567
9.32125e-06	-0.009507508148255
9.32150e-06	-0.009484376889469275
9.32175e-06	-0.00946124563068355
9.32200e-06	-0.009437058871953615
9.32225e-06	-0.009409756405620704
9.32250e-06	-0.00938245393928779
9.32275e-06	-0.009355151472955063
9.32300e-06	-0.009327849006622152
9.32325e-06	-0.009300363145170751
9.32350e-06	-0.009272335923610462
9.32375e-06	-0.009244384115103074
9.32400e-06	-0.009216766858017153
9.32425e-06	-0.009189643825628174
9.32450e-06	-0.009163216138250071
9.32475e-06	-0.009137669779369268
9.32500e-06	-0.009113179377638975
9.32525e-06	-0.009090115141637645
9.32550e-06	-0.009068642568357311
9.32575e-06	-0.009047996592838534
9.32600e-06	-0.009029790633488787
9.32625e-06	-0.009012399135112223
9.32650e-06	-0.008997411826580223
9.32675e-06	-0.008983254297298016
9.32700e-06	-0.008971546175551237
9.32725e-06	-0.008960947843291349
9.32750e-06	-0.008953625474768913
9.32775e-06	-0.008946303106246428
9.32800e-06	-0.008940793943177544
9.32825e-06	-0.008940637142322254
9.32850e-06	-0.008940480341466965
9.32875e-06	-0.008940323540611675
9.32900e-06	-0.008940166739756386
9.32925e-06	-0.008940009938901095
9.32950e-06	-0.008945894241983268
9.32975e-06	-0.008953759684454304
9.33000e-06	-0.008961625126925395
9.33025e-06	-0.008969490569396485
9.33050e-06	-0.008977356011867521
9.33075e-06	-0.008986781219087591
9.33100e-06	-0.009000810662351599
9.33125e-06	-0.00901484010561551
9.33150e-06	-0.009028869548879518
9.33175e-06	-0.009042898992143526
9.33200e-06	-0.009056928435407438
9.33225e-06	-0.009070957878671446
9.33250e-06	-0.00908704221027449
9.33275e-06	-0.009103800428682121
9.33300e-06	-0.00912055864708964
9.33325e-06	-0.00913731686549727
9.33350e-06	-0.009154075083904901
9.33375e-06	-0.009170833302312418
9.33400e-06	-0.009187366538445051
9.33425e-06	-0.009203235654234783
9.33450e-06	-0.009219104770024408
9.33475e-06	-0.009234425491518847
9.33500e-06	-0.009248127419677447
9.33525e-06	-0.009261829347835955
9.33550e-06	-0.00927483346958789
9.33575e-06	-0.009285777751603054
9.33600e-06	-0.009296722033618145
9.33625e-06	-0.009307890276689863
9.33650e-06	-0.00931971962559177
9.33675e-06	-0.009331548974493597
9.33700e-06	-0.009344080484008175
9.33725e-06	-0.009358684686346803
9.33750e-06	-0.00937328888868533
9.33775e-06	-0.009387893091023959
9.33800e-06	-0.009402497293362585
9.33825e-06	-0.009417101495701114
9.33850e-06	-0.009431705698039741
9.33875e-06	-0.009447653835050283
9.33900e-06	-0.009467569103939644
9.33925e-06	-0.009487484372829138
9.33950e-06	-0.009507399641718635
9.33975e-06	-0.009527314910607994
9.34000e-06	-0.00954723017949749
9.34025e-06	-0.009567145448386985
9.34050e-06	-0.009588214979141977
9.34075e-06	-0.009612691750695335
9.34100e-06	-0.009637168522248692
9.34125e-06	-0.00966164529380205
9.34150e-06	-0.009686122065355242
9.34175e-06	-0.009710598836908599
9.34200e-06	-0.009735075608461957
9.34225e-06	-0.009759552380015147
9.34250e-06	-0.009784181573320143
9.34275e-06	-0.009808860752313051
9.34300e-06	-0.00983353993130579
9.34325e-06	-0.009858219110298697
9.34350e-06	-0.009882898289291606
9.34375e-06	-0.009907577468284344
9.34400e-06	-0.009932256647277251
9.34425e-06	-0.009956140674181059
9.34450e-06	-0.009977677508718894
9.34475e-06	-0.009999214343256877
9.34500e-06	-0.010018842603731652
9.34525e-06	-0.010032836985439827
9.34550e-06	-0.010046831367148094
9.34575e-06	-0.010060825748856363
9.34600e-06	-0.010074820130564537
9.34625e-06	-0.010088814512272806
9.34650e-06	-0.010102808893981073
9.34675e-06	-0.010116803275689248
9.34700e-06	-0.010130797657397515
9.34725e-06	-0.010135603746783496
9.34750e-06	-0.010137396597523302
9.34775e-06	-0.010139189448263121
9.34800e-06	-0.010140982299002939
9.34825e-06	-0.010142775149742746
9.34850e-06	-0.010144568000482563
9.34875e-06	-0.010146360851222383
9.34900e-06	-0.01014815370196219
9.34925e-06	-0.010147333185435
9.34950e-06	-0.010138798326226502
9.34975e-06	-0.010130263467018001
9.35000e-06	-0.01012172860780956
9.35025e-06	-0.01011319374860106
9.35050e-06	-0.01010465888939256
9.35075e-06	-0.010096124030184119
9.35100e-06	-0.010087589170975618
9.35125e-06	-0.01007905431176712
9.35150e-06	-0.010066183848562282
9.35175e-06	-0.010051891553197499
9.35200e-06	-0.010037599257832715
9.35225e-06	-0.010023306962468028
9.35250e-06	-0.010009014667103243
9.35275e-06	-0.009994722371738459
9.35300e-06	-0.009980430076373772
9.35325e-06	-0.009966137781008988
9.35350e-06	-0.009951667731255887
9.35375e-06	-0.00993667297214339
9.35400e-06	-0.009921678213030794
9.35425e-06	-0.009906683453918198
9.35450e-06	-0.009892105175174325
9.35475e-06	-0.009878756295881717
9.35500e-06	-0.00986540741658911
9.35525e-06	-0.009852058537296593
9.35550e-06	-0.009839256775775906
9.35575e-06	-0.009828070039450484
9.35600e-06	-0.009816883303125136
9.35625e-06	-0.009805299312831871
9.35650e-06	-0.009792542677086504
9.35675e-06	-0.009779786041341226
9.35700e-06	-0.009766168086408537
9.35725e-06	-0.009750007621873379
9.35750e-06	-0.009733847157338332
9.35775e-06	-0.009717686692803176
9.35800e-06	-0.009701526228268018
9.35825e-06	-0.009685365763732861
9.35850e-06	-0.009667740400642994
9.35875e-06	-0.009645790834984026
9.35900e-06	-0.00962384126932506
9.35925e-06	-0.009601891703666241
9.35950e-06	-0.009579942138007275
9.35975e-06	-0.009557992572348309
9.36000e-06	-0.00953477400710858
9.36025e-06	-0.009507809509271428
9.36050e-06	-0.009480845011434275
9.36075e-06	-0.009453880513597303
9.36100e-06	-0.00942691601576015
9.36125e-06	-0.009399951517922996
9.36150e-06	-0.009370933151859731
9.36175e-06	-0.009341241233529973
9.36200e-06	-0.009311549315200214
9.36225e-06	-0.009281857396870655
9.36250e-06	-0.009252165478540896
9.36275e-06	-0.009222357130598479
9.36300e-06	-0.00919220509658422
9.36325e-06	-0.00916221578979819
9.36350e-06	-0.009132706834021499
9.36375e-06	-0.009103507896592578
9.36400e-06	-0.009075224095662793
9.36425e-06	-0.009047320541486189
9.36450e-06	-0.009020539429530726
9.36475e-06	-0.008994283027457904
9.36500e-06	-0.008969575505214643
9.36525e-06	-0.008946595517186965
9.36550e-06	-0.008928715000293241
9.36575e-06	-0.008910834483399518
9.36600e-06	-0.008892953966505916
9.36625e-06	-0.008875073449612192
9.36650e-06	-0.008857192932718468
9.36675e-06	-0.008839312415824745
9.36700e-06	-0.008821431898931142
9.36725e-06	-0.008803551382037419
9.36750e-06	-0.008792085450125473
9.36775e-06	-0.008782723138201332
9.36800e-06	-0.008773360826277126
9.36825e-06	-0.008763998514352922
9.36850e-06	-0.00875463620242878
9.36875e-06	-0.008745273890504574
9.36900e-06	-0.008735911578580368
9.36925e-06	-0.008726549266656227
9.36950e-06	-0.008718776713026921
9.36975e-06	-0.00871569693275295
9.37000e-06	-0.008712617152478999
9.37025e-06	-0.008709537372205027
9.37050e-06	-0.008706457591931055
9.37075e-06	-0.008703377811657104
9.37100e-06	-0.008700298031383133
9.37125e-06	-0.00869721825110916
9.37150e-06	-0.00869413847083521
9.37175e-06	-0.008691917980403861
9.37200e-06	-0.008692234009197514
9.37225e-06	-0.008692550037991166
9.37250e-06	-0.00869286606678482
9.37275e-06	-0.008693182095578473
9.37300e-06	-0.008693498124372123
9.37325e-06	-0.008693814153165776
9.37350e-06	-0.00869413018195943
9.37375e-06	-0.008694446210753081
9.37400e-06	-0.008694942602431786
9.37425e-06	-0.008695971403435877
9.37450e-06	-0.008697000204439963
9.37475e-06	-0.008697946679527883
9.37500e-06	-0.008698650138512577
9.37525e-06	-0.008699353597497269
9.37550e-06	-0.008699977322889485
9.37575e-06	-0.008700365684403102
9.37600e-06	-0.008701093522488027
9.37625e-06	-0.00870282345417037
9.37650e-06	-0.008705302803066724
9.37675e-06	-0.008709994340536365
9.37700e-06	-0.008715520174182204
9.37725e-06	-0.008723508748786397
9.37750e-06	-0.008731497323390592
9.37775e-06	-0.008740488813044086
9.37800e-06	-0.008752440786084984
9.37825e-06	-0.008764392759125883
9.37850e-06	-0.008778219178587125
9.37875e-06	-0.008797578736166085
9.37900e-06	-0.008816938293745047
9.37925e-06	-0.008836297851323876
9.37950e-06	-0.008855657408902838
9.37975e-06	-0.008875016966481799
9.38000e-06	-0.008896346690069543
9.38025e-06	-0.00892349210437229
9.38050e-06	-0.008950637518675036
9.38075e-06	-0.008977782932977598
9.38100e-06	-0.009004928347280346
9.38125e-06	-0.009032073761583092
9.38150e-06	-0.009060320149053228
9.38175e-06	-0.009091816475563952
9.38200e-06	-0.009123312802074674
9.38225e-06	-0.009154809128585184
9.38250e-06	-0.009186305455095906
9.38275e-06	-0.00921780178160663
9.38300e-06	-0.009249298108117138
9.38325e-06	-0.00927986576968035
9.38350e-06	-0.009310128881821887
9.38375e-06	-0.009340391993963422
9.38400e-06	-0.009370655106104754
9.38425e-06	-0.009400918218246289
9.38450e-06	-0.009431181330387825
9.38475e-06	-0.009460153676823724
9.38500e-06	-0.009485315839703828
9.38525e-06	-0.00951047800258393
9.38550e-06	-0.009533122184505905
9.38575e-06	-0.009548333592532435
9.38600e-06	-0.009563545000558964
9.38625e-06	-0.00957875640858539
9.38650e-06	-0.009593967816611919
9.38675e-06	-0.00960917922463845
9.38700e-06	-0.009624390632664875
9.38725e-06	-0.009639602040691404
9.38750e-06	-0.00965126164121479
9.38775e-06	-0.009652436737473307
9.38800e-06	-0.00965361183373183
9.38825e-06	-0.009654786929990352
9.38850e-06	-0.009655962026248868
9.38875e-06	-0.009657137122507391
9.38900e-06	-0.009658312218765914
9.38925e-06	-0.00965948731502443
9.38950e-06	-0.009657809374451388
9.38975e-06	-0.009647709615746885
9.39000e-06	-0.00963760985704245
9.39025e-06	-0.009627510098337946
9.39050e-06	-0.009617410339633443
9.39075e-06	-0.009607310580929007
9.39100e-06	-0.009597210822224504
9.39125e-06	-0.00958711106352
9.39150e-06	-0.009572281742023625
9.39175e-06	-0.009555901392228602
9.39200e-06	-0.009539521042433578
9.39225e-06	-0.009523140692638554
9.39250e-06	-0.009506760342843642
9.39275e-06	-0.009490379993048617
9.39300e-06	-0.009473999643253595
9.39325e-06	-0.009457284632325189
9.39350e-06	-0.009439581742386039
9.39375e-06	-0.009421878852446889
9.39400e-06	-0.0094043550685086
9.39425e-06	-0.009387359983726157
9.39450e-06	-0.009370364898943715
9.39475e-06	-0.009354521393475264
9.39500e-06	-0.009342077210244864
9.39525e-06	-0.009329633027014464
9.39550e-06	-0.009317188843784149
9.39575e-06	-0.009304744660553749
9.39600e-06	-0.009292300477323349
9.39625e-06	-0.009279856294093032
9.39650e-06	-0.009267412110862632
9.39675e-06	-0.009254967927632233
9.39700e-06	-0.009242523744401918
9.39725e-06	-0.009230079561171518
9.39750e-06	-0.009217635377941116
9.39775e-06	-0.009205191194710801
9.39800e-06	-0.009195011175818116
9.39825e-06	-0.009185573674387605
9.39850e-06	-0.009176136172957159
9.39875e-06	-0.009166698671526646
9.39900e-06	-0.009157261170096135
9.39925e-06	-0.009147823668665688
9.39950e-06	-0.009138386167235175
9.39975e-06	-0.009128948665804664
9.40000e-06	-0.009119511164374218
9.40025e-06	-0.009110073662943705
9.40050e-06	-0.009100636161513194
9.40075e-06	-0.009091198660082683
9.40100e-06	-0.009081934809405764
9.40125e-06	-0.009073183554657869
9.40150e-06	-0.009064432299909973
9.40175e-06	-0.009055681045162136
9.40200e-06	-0.009046929790414241
9.40225e-06	-0.009038178535666345
9.40250e-06	-0.009029427280918509
9.40275e-06	-0.009020676026170613
9.40300e-06	-0.009011924771422717
9.40325e-06	-0.009004109086996503
9.40350e-06	-0.008996600216563145
9.40375e-06	-0.008989091346129786
9.40400e-06	-0.008981582475696477
9.40425e-06	-0.00897407360526312
9.40450e-06	-0.008966564734829761
9.40475e-06	-0.008959055864396452
9.40500e-06	-0.008951546993963094
9.40525e-06	-0.00894440024481066
9.40550e-06	-0.00893832243368876
9.40575e-06	-0.00893224462256682
9.40600e-06	-0.008925904358309691
9.40625e-06	-0.008918789364280536
9.40650e-06	-0.008911674370251333
9.40675e-06	-0.008903830540487856
9.40700e-06	-0.008893835276176293
9.40725e-06	-0.00888384001186466
9.40750e-06	-0.00887324340701135
9.40775e-06	-0.008860871717930242
9.40800e-06	-0.00884850002884905
9.40825e-06	-0.0088348939223581
9.40850e-06	-0.00881764396563119
9.40875e-06	-0.008800394008904162
9.40900e-06	-0.008783144052177134
9.40925e-06	-0.008765894095450222
9.40950e-06	-0.008748644138723194
9.40975e-06	-0.008727380040831859
9.41000e-06	-0.008704799532350486
9.41025e-06	-0.008682219023869266
9.41050e-06	-0.008659638515387893
9.41075e-06	-0.008637058006906522
9.41100e-06	-0.008613662637536297
9.41125e-06	-0.008587861897810866
9.41150e-06	-0.008562061158085436
9.41175e-06	-0.008536030722769901
9.41200e-06	-0.008509322253975079
9.41225e-06	-0.008482468497220536
9.41250e-06	-0.008455185868058646
9.41275e-06	-0.008427870952683304
9.41300e-06	-0.008400460732328509
9.41325e-06	-0.008373124864530734
9.41350e-06	-0.008346111226732796
9.41375e-06	-0.008319535931790658
9.41400e-06	-0.00829351148828664
9.41425e-06	-0.008268103526110434
9.41450e-06	-0.008243387450855528
9.41475e-06	-0.008219498193376059
9.41500e-06	-0.008196600126435832
9.41525e-06	-0.008174856702817151
9.41550e-06	-0.008154432530950061
9.41575e-06	-0.008135485160631084
9.41600e-06	-0.00811813379866339
9.41625e-06	-0.00810242482972642
9.41650e-06	-0.008088363415786181
9.41675e-06	-0.008076189754499467
9.41700e-06	-0.008065931236340147
9.41725e-06	-0.008056570251342947
9.41750e-06	-0.00804985867520898
9.41775e-06	-0.008044292474093303
9.41800e-06	-0.008042107280892387
9.41825e-06	-0.008039922087691472
9.41850e-06	-0.008039427969357272
9.41875e-06	-0.008043925698599096
9.41900e-06	-0.00804842342784095
9.41925e-06	-0.008052921157082803
9.41950e-06	-0.008057418886324627
9.41975e-06	-0.008063733033211461
9.42000e-06	-0.008075409024329431
9.42025e-06	-0.008087085015447321
9.42050e-06	-0.008098761006565291
9.42075e-06	-0.008110436997683261
9.42100e-06	-0.008123479379053018
9.42125e-06	-0.008140555178458592
9.42150e-06	-0.008157630977864167
9.42175e-06	-0.008174706777269626
9.42200e-06	-0.0081917825766752
9.42225e-06	-0.008208858376080775
9.42250e-06	-0.008226489404088032
9.42275e-06	-0.008245759399479401
9.42300e-06	-0.00826502939487077
9.42325e-06	-0.008284299390262009
9.42350e-06	-0.008303569385653378
9.42375e-06	-0.008322839381044746
9.42400e-06	-0.008341819114737692
9.42425e-06	-0.008359942031157993
9.42450e-06	-0.008378064947578293
9.42475e-06	-0.008395574425946533
9.42500e-06	-0.00841127310970511
9.42525e-06	-0.008426971793463687
9.42550e-06	-0.008441747295766635
9.42575e-06	-0.008453797678559584
9.42600e-06	-0.008465848061352534
9.42625e-06	-0.008476802048334101
9.42650e-06	-0.008484519608069082
9.42675e-06	-0.008492237167804062
9.42700e-06	-0.008498793994967018
9.42725e-06	-0.008501924480581145
9.42750e-06	-0.008505054966195294
9.42775e-06	-0.008506498670345348
9.42800e-06	-0.00850296320052075
9.42825e-06	-0.008499427730696127
9.42850e-06	-0.008495892260871506
9.42875e-06	-0.008492356791046908
9.42900e-06	-0.008488821321222285
9.42925e-06	-0.008479478480653857
9.42950e-06	-0.008468231151917353
9.42975e-06	-0.008456983823180775
9.43000e-06	-0.008445736494444196
9.43025e-06	-0.008434489165707692
9.43050e-06	-0.00842181146988479
9.43075e-06	-0.008404911504181302
9.43100e-06	-0.00838801153847793
9.43125e-06	-0.008371111572774441
9.43150e-06	-0.008354211607070955
9.43175e-06	-0.00833651801325257
9.43200e-06	-0.008316481725646807
9.43225e-06	-0.008296445438041046
9.43250e-06	-0.00827640915043542
9.43275e-06	-0.008256372862829656
9.43300e-06	-0.008236146581463856
9.43325e-06	-0.008215359461598579
9.43350e-06	-0.008194632200843864
9.43375e-06	-0.0081740816369124
9.43400e-06	-0.008153648670210364
9.43425e-06	-0.008133683968459775
9.43450e-06	-0.00811423048839158
9.43475e-06	-0.00809541604552383
9.43500e-06	-0.008077367075401215
9.43525e-06	-0.008060211393541792
9.43550e-06	-0.00804407519982471
9.43575e-06	-0.008029124498966585
9.43600e-06	-0.008015725412750375
9.43625e-06	-0.008004497943663915
9.43650e-06	-0.007995947191354652
9.43675e-06	-0.007990196755918404
9.43700e-06	-0.007987191464998157
9.43725e-06	-0.007987205690822547
9.43750e-06	-0.007990167762271122
9.43775e-06	-0.007994490567992058
9.43800e-06	-0.008002830095986423
9.43825e-06	-0.008013104872171961
9.43850e-06	-0.008029092265928668
9.43875e-06	-0.008045079659685267
9.43900e-06	-0.008063797540130849
9.43925e-06	-0.008090575485589738
9.43950e-06	-0.008117353431048446
9.43975e-06	-0.008144131376507335
9.44000e-06	-0.008170909321966223
9.44025e-06	-0.008200490323465969
9.44050e-06	-0.00823834560589185
9.44075e-06	-0.00827620088831773
9.44100e-06	-0.008314056170743354
9.44125e-06	-0.008351911453169233
9.44150e-06	-0.008391245585561338
9.44175e-06	-0.008434945103407148
9.44200e-06	-0.008478644621253256
9.44225e-06	-0.008522932046690457
9.44250e-06	-0.008568954903919061
9.44275e-06	-0.008614977761147976
9.44300e-06	-0.008661024184955903
9.44325e-06	-0.008707140174441966
9.44350e-06	-0.008753256163928342
9.44375e-06	-0.008798928826785889
9.44400e-06	-0.008843292843288985
9.44425e-06	-0.008887030577954577
9.44450e-06	-0.008928919604715632
9.44475e-06	-0.008969597230760285
9.44500e-06	-0.009006698949046708
9.44525e-06	-0.00904380066733338
9.44550e-06	-0.009077576434324403
9.44575e-06	-0.009101534397115387
9.44600e-06	-0.009125492359906534
9.44625e-06	-0.009149450322697681
9.44650e-06	-0.009173408285488665
9.44675e-06	-0.009197366248279812
9.44700e-06	-0.009221324211070957
9.44725e-06	-0.009245282173861943
