Time(s)	Current(A)
1.45000e-05	0.00025928347929745667
1.45003e-05	0.0002408067864154006
1.45005e-05	0.00022257852391800059
1.45008e-05	0.00020444316561017955
1.45010e-05	0.00018630780730248138
1.45013e-05	0.00016918722581065685
1.45015e-05	0.00015244613500724972
1.45018e-05	0.0001366083558501297
1.45020e-05	0.0001218324709446061
1.45023e-05	0.00010814237156645551
1.45025e-05	9.550877957753113e-05
1.45028e-05	8.35657721348246e-05
1.45030e-05	7.186636565707902e-05
1.45033e-05	6.0241421499256845e-05
1.45035e-05	4.874302907477655e-05
1.45038e-05	3.746836441599814e-05
1.45040e-05	2.6514585688132705e-05
1.45043e-05	1.5978537970685095e-05
1.45045e-05	5.860352586248411e-06
1.45048e-05	-4.050699087196317e-06
1.45050e-05	-1.4016090786095597e-05
1.45053e-05	-2.4123246380629385e-05
1.45055e-05	-3.4294186293755616e-05
1.45058e-05	-4.447387430303384e-05
1.45060e-05	-5.465356231231207e-05
1.45063e-05	-6.463612946607546e-05
1.45065e-05	-7.454498038203828e-05
1.45068e-05	-8.445383129800111e-05
1.45070e-05	-9.43626822138968e-05
1.45073e-05	-0.00010427153312985963
1.45075e-05	-0.00011419419124519703
1.45078e-05	-0.00012412201276538004
1.45080e-05	-0.00013404983428563034
1.45083e-05	-0.00014397765580588062
1.45085e-05	-0.00015390547732606363
1.45088e-05	-0.00016350337406899698
1.45090e-05	-0.00017297789059774022
1.45093e-05	-0.00018245240712648345
1.45095e-05	-0.00019192692365516248
1.45098e-05	-0.00020140144018390572
1.45100e-05	-0.0002106196497907905
1.45103e-05	-0.00021896912864934168
1.45105e-05	-0.0002273186075079494
1.45108e-05	-0.00023566808636655716
1.45110e-05	-0.0002440175652251083
1.45113e-05	-0.00025236704408371604
1.45115e-05	-0.000259708131006765
1.45118e-05	-0.0002666721149609587
1.45120e-05	-0.0002736360989151996
1.45123e-05	-0.0002797790117811466
1.45125e-05	-0.00028561487305918404
1.45128e-05	-0.000291450734337261
1.45130e-05	-0.0002982126182941534
1.45133e-05	-0.00030532080202698246
1.45135e-05	-0.0003124289857598596
1.45138e-05	-0.0003206931338761416
1.45140e-05	-0.0003293895718446447
1.45143e-05	-0.00033808600981320675
1.45145e-05	-0.0003479144619636647
1.45148e-05	-0.00035816624743687236
1.45150e-05	-0.00036841803291014956
1.45153e-05	-0.00038052371366812635
1.45155e-05	-0.0003933226857854437
1.45158e-05	-0.0004061216579028479
1.45160e-05	-0.0004202864834630942
1.45163e-05	-0.00043496208997080267
1.45165e-05	-0.00044963769647861064
1.45168e-05	-0.0004656388110721264
1.45170e-05	-0.00048213561887448315
1.45173e-05	-0.0004986324266769517
1.45175e-05	-0.0005164303086994667
1.45178e-05	-0.000534714746528164
1.45180e-05	-0.0005529991843567373
1.45183e-05	-0.0005712836221854346
1.45185e-05	-0.0005902244805278629
1.45188e-05	-0.0006094108169584539
1.45190e-05	-0.0006285971533891749
1.45193e-05	-0.0006477834898198959
1.45195e-05	-0.0006644861190413052
1.45198e-05	-0.0006717506773186189
1.45200e-05	-0.0007006862880630122
1.45203e-05	-0.0044640841265861115
1.45205e-05	-0.014984752504054597
1.45208e-05	-0.014920536364192221
1.45210e-05	-0.01278296440175358
1.45213e-05	-0.008324583834107209
1.45215e-05	-0.0004559937463203514
1.45218e-05	0.0012033109282766352
1.45220e-05	0.0004948508514209039
1.45223e-05	-0.0020147983869782406
1.45225e-05	-0.008130975913250248
1.45228e-05	-0.009305479411610513
1.45230e-05	-0.007427883861204935
1.45233e-05	-0.004282925656643831
1.45235e-05	-0.00025724903727058785
1.45238e-05	0.0016509784885321197
1.45240e-05	0.00119496068522711
1.45243e-05	-0.0010400588430575439
1.45245e-05	-0.004102375028218921
1.45248e-05	-0.005299316243186469
1.45250e-05	-0.004476524086308578
1.45253e-05	-0.0024757474380572853
1.45255e-05	4.923656386506339e-06
1.45258e-05	0.0011800838123674794
1.45260e-05	0.0008827155372698785
1.45263e-05	-0.0005255030422179005
1.45265e-05	-0.0024488730261641393
1.45268e-05	-0.0032011910711492817
1.45270e-05	-0.00268627196504571
1.45273e-05	-0.0014318207770153747
1.45275e-05	0.00012453121269609272
1.45278e-05	0.0008641674991572406
1.45280e-05	0.0006823138296076794
1.45283e-05	-0.0001946096279620864
1.45285e-05	-0.001393597696615319
1.45288e-05	-0.0018586014638794232
1.45290e-05	-0.001529592296417895
1.45293e-05	-0.0007373200631187654
1.45295e-05	0.00024392645327488973
1.45298e-05	0.0007133445518011536
1.45300e-05	0.0006052439510387744
1.45303e-05	6.139758166466981e-05
1.45305e-05	-0.0006846121207367556
1.45308e-05	-0.0009713811788271017
1.45310e-05	-0.0007614390219302608
1.45313e-05	-0.00026208686527043416
1.45315e-05	0.000354761629501821
1.45318e-05	0.000650055311132257
1.45320e-05	0.0005826009047151001
1.45323e-05	0.0002411594689938132
1.45325e-05	-0.00022790409629262092
1.45328e-05	-0.0004099975910291161
1.45330e-05	-0.0002812810677486348
1.45333e-05	2.8561188618749552e-05
1.45335e-05	0.0004118583554855264
1.45338e-05	0.0005936006181143132
1.45340e-05	0.0005480101604322197
1.45343e-05	0.0003307113115701869
1.45345e-05	3.340525062555592e-05
1.45348e-05	-8.420548320946934e-05
1.45350e-05	-7.197135927809135e-06
1.45353e-05	0.00018318986567368792
1.45355e-05	0.0004195113417174199
1.45358e-05	0.0005295132895108377
1.45360e-05	0.0004970690835742467
1.45363e-05	0.00035704164954744133
1.45365e-05	0.00016688815976185852
1.45368e-05	8.92917551445487e-05
1.45370e-05	0.00013359863450217608
1.45373e-05	0.00024891990760426833
1.45375e-05	0.0003930128582282777
1.45378e-05	0.00045798907946047337
1.45380e-05	0.0004337634496821002
1.45383e-05	0.0003421902098031393
1.45385e-05	0.00021927397237557985
1.45388e-05	0.00016692649367693553
1.45390e-05	0.00019100455617782685
1.45393e-05	0.00025963497099818975
1.45395e-05	0.0003463632405287053
1.45398e-05	0.0003836186869812011
1.45400e-05	0.0003650980038603614
1.45403e-05	0.0003045042422688744
1.45405e-05	0.00022440259181379487
1.45408e-05	0.00018863846489051322
1.45410e-05	0.00020088550568224685
1.45413e-05	0.00024118408844274786
1.45415e-05	0.00029297049936135634
1.45418e-05	0.00031392864548623737
1.45420e-05	0.0003001223174953666
1.45423e-05	0.0002601470498783411
1.45425e-05	0.00020812630392925686
1.45428e-05	0.0001839832680805802
1.45430e-05	0.00018992987281450917
1.45433e-05	0.00021342201880013187
1.45435e-05	0.000244080431228455
1.45438e-05	0.0002554012121231778
1.45440e-05	0.00024492298966153177
1.45443e-05	0.00021803406859127852
1.45445e-05	0.00018358481968399284
1.45448e-05	0.00016658494066060424
1.45450e-05	0.00016842070320026518
1.45453e-05	0.00018123548059498495
1.45455e-05	0.00019852934259099154
1.45458e-05	0.00020370303163583177
1.45460e-05	0.00019521823198394173
1.45463e-05	0.00017645365133897136
1.45465e-05	0.00015295620601080587
1.45468e-05	0.00014039399468358097
1.45470e-05	0.00013963670846841875
1.45473e-05	0.000145764471456421
1.45475e-05	0.00015470767538341827
1.45478e-05	0.00015607115032013463
1.45480e-05	0.00014889440712252853
1.45483e-05	0.0001352969090160066
1.45485e-05	0.00011875603002290936
1.45488e-05	0.00010908845719960285
1.45490e-05	0.00010684069146057361
1.45493e-05	0.00010893275667457652
1.45495e-05	0.00011281755908463536
1.45498e-05	0.00011198607875384903
1.45500e-05	0.00010583952398909085
1.45503e-05	9.570832163329966e-05
1.45505e-05	8.377334796160672e-05
1.45508e-05	7.618602469107414e-05
1.45510e-05	7.329064938762477e-05
1.45513e-05	7.31599901100018e-05
1.45515e-05	7.420074756809699e-05
1.45518e-05	7.23381568824308e-05
1.45520e-05	6.719980375607127e-05
1.45523e-05	5.9621720292944644e-05
1.45525e-05	5.107801340823015e-05
1.45528e-05	4.5780353536193e-05
1.45530e-05	4.4351503305040897e-05
1.45533e-05	4.573427568595575e-05
1.45535e-05	4.8895240485296124e-05
1.45538e-05	5.122189369240522e-05
1.45540e-05	5.242091208310363e-05
1.45543e-05	5.295594025727001e-05
1.45545e-05	5.3690248417459146e-05
1.45548e-05	5.720175288876323e-05
1.45550e-05	6.382014703572448e-05
1.45553e-05	7.282282815805827e-05
1.45555e-05	8.350213076898383e-05
1.45558e-05	9.416136699429134e-05
1.45560e-05	0.00010455667231196552
1.45563e-05	0.00011491834672637969
1.45565e-05	0.00012572696837715342
1.45568e-05	0.00013853710393230283
1.45570e-05	0.00015349491305363688
1.45573e-05	0.00017008742733298456
1.45575e-05	0.00018781111751759718
1.45578e-05	0.00020554294362463122
1.45580e-05	0.00022307001695172644
1.45583e-05	0.00024047645717491838
1.45585e-05	0.0002580031198879094
1.45588e-05	0.00027656360426111425
1.45590e-05	0.0002961891509596008
1.45593e-05	0.00031660643352808445
1.45595e-05	0.00033713390356994314
1.45598e-05	0.0003572764723231212
1.45600e-05	0.0003767884879426358
1.45603e-05	0.00039540924560354265
1.45605e-05	0.0004138928845996758
1.45608e-05	0.00043216915165168377
1.45610e-05	0.00045031057868909484
1.45613e-05	0.0004677465242226582
1.45615e-05	0.00048506356527888884
1.45618e-05	0.0005003414075214558
1.45620e-05	0.0005152670159327859
1.45623e-05	0.0005277761058751925
1.45625e-05	0.0005398677870035603
1.45628e-05	0.0005512387538387834
1.45630e-05	0.0005624852306268572
1.45633e-05	0.0005739823769798952
1.45635e-05	0.0005855228218580575
1.45638e-05	0.0005970632667362979
1.45640e-05	0.0006076332790798632
1.45643e-05	0.0006180356671744066
1.45645e-05	0.0006284380552690205
1.45648e-05	0.0006391893777363845
1.45650e-05	0.0006500009721546647
1.45653e-05	0.0006608125665730182
1.45655e-05	0.0006716241609913717
1.45658e-05	0.0006825967687362688
1.45660e-05	0.000693864866436613
1.45663e-05	0.0007051329641369573
1.45665e-05	0.000716401061837225
1.45668e-05	0.0007276691595375693
1.45670e-05	0.0007396169664616164
1.45673e-05	0.0007516821805664851
1.45675e-05	0.0007637473946714355
1.45678e-05	0.0007758126087763859
1.45680e-05	0.0007878778228812545
1.45683e-05	0.0007999643400112087
1.45685e-05	0.0008120545368442231
1.45688e-05	0.0008241447336771557
1.45690e-05	0.0008362349305101702
1.45693e-05	0.0008483251273431846
1.45695e-05	0.0008603169490700555
1.45698e-05	0.0008722917783190584
1.45700e-05	0.0008837640110369602
1.45703e-05	0.0008951494295116344
1.45705e-05	0.0009060290748623221
1.45708e-05	0.0009165427601629159
1.45710e-05	0.0009267473460256079
1.45713e-05	0.0009365915264908913
1.45715e-05	0.0009459816843448248
1.45718e-05	0.0009547949685699787
1.45720e-05	0.0009629430351398344
1.45723e-05	0.0009703487850582953
1.45725e-05	0.0009768440846982121
1.45728e-05	0.0009820648665429604
1.45730e-05	0.0009855929781196584
1.45733e-05	0.0009872548658524762
1.45735e-05	0.0009870561081636966
1.45738e-05	0.0009850118120220508
1.45740e-05	0.0009811582926060579
1.45743e-05	0.0009747793213512886
1.45745e-05	0.0009680100032176731
1.45748e-05	0.0009579283426480073
1.45750e-05	0.0009472745362634267
1.45753e-05	0.0009322612203399882
1.45755e-05	0.0009164948798768764
1.45758e-05	0.0009007285394138715
1.45760e-05	0.0008804221199689544
1.45763e-05	0.0008593314859569805
1.45765e-05	0.0008382408519451494
1.45768e-05	0.0008131009721626074
1.45770e-05	0.0007872616601605446
1.45773e-05	0.000761422348158657
1.45775e-05	0.0007321723020697385
1.45778e-05	0.0007023331148301313
1.45780e-05	0.0006724939275905242
1.45783e-05	0.0006404308938128999
1.45785e-05	0.0006079837317286184
1.45788e-05	0.000575536569644337
1.45790e-05	0.0005417950535633227
1.45793e-05	0.0005078299617990167
1.45795e-05	0.0004738648700347107
1.45798e-05	0.00043988937162049035
1.45800e-05	0.00040591207564994613
1.45803e-05	0.0003719347796794019
1.45805e-05	0.00033901500369146637
1.45808e-05	0.0003062778946962597
1.45810e-05	0.00027457326519854516
1.45813e-05	0.00024393615039015914
1.45815e-05	0.00021452296177717516
1.45818e-05	0.0001865439361889424
1.45820e-05	0.00016021264936475242
1.45823e-05	0.00013574366748814556
1.45825e-05	0.00011306729929903897
1.45828e-05	9.141338014048529e-05
1.45830e-05	6.980517136051454e-05
1.45833e-05	4.7890682108692667e-05
1.45835e-05	2.5807425496700328e-05
1.45838e-05	3.703713825038746e-06
1.45840e-05	-1.8197488923167582e-05
1.45843e-05	-3.971296439236966e-05
1.45845e-05	-6.087827658703453e-05
1.45848e-05	-8.199356942569273e-05
1.45850e-05	-0.00010372665526286029
1.45853e-05	-0.0001264745866639667
1.45855e-05	-0.0001493793812689499
1.45858e-05	-0.00017306028820671012
1.45860e-05	-0.00019687525417752435
1.45863e-05	-0.00022069022014833858
1.45865e-05	-0.00024497349364800073
1.45868e-05	-0.00026933765860064524
1.45870e-05	-0.00029370182355345487
1.45873e-05	-0.00031941666836541113
1.45875e-05	-0.00034536481810999524
1.45878e-05	-0.00037131296785475516
1.45880e-05	-0.000397261117599515
1.45883e-05	-0.00042320926734409914
1.45885e-05	-0.000449172648802228
1.45888e-05	-0.0004751639833397801
1.45890e-05	-0.0005011553178771562
1.45893e-05	-0.0005271466524147083
1.45895e-05	-0.0005531379869522605
1.45898e-05	-0.0005791293214896365
1.45900e-05	-0.0006035454876733685
1.45903e-05	-0.0006276895726940232
1.45905e-05	-0.0006518336577145145
1.45908e-05	-0.0006759777427351692
1.45910e-05	-0.0006988502914825487
1.45913e-05	-0.0007193893302970138
1.45915e-05	-0.0007399283691116181
1.45918e-05	-0.0007604674079262224
1.45920e-05	-0.0007810064467406875
1.45923e-05	-0.000797779088896412
1.45925e-05	-0.0008139011557779197
1.45928e-05	-0.000830023222659318
1.45930e-05	-0.0008445918860613635
1.45933e-05	-0.0008588922277792625
1.45935e-05	-0.0008731925694970644
1.45938e-05	-0.0008874929112149632
1.45940e-05	-0.0009017932529328621
1.45943e-05	-0.0009145755704727616
1.45945e-05	-0.0009270956774477509
1.45948e-05	-0.00093961578442274
1.45950e-05	-0.0009521358913977292
1.45953e-05	-0.0009646559983726335
1.45955e-05	-0.0009765860482845255
1.45958e-05	-0.0009884141767658092
1.45960e-05	-0.001000242305247013
1.45963e-05	-0.0010120704337282967
1.45965e-05	-0.0010238985622095804
1.45968e-05	-0.0010357266906907841
1.45970e-05	-0.0010475548191720679
1.45973e-05	-0.0010593829476533516
1.45975e-05	-0.0010712110761345553
1.45978e-05	-0.001083039204615839
1.45980e-05	-0.001093993775059711
1.45983e-05	-0.0011047974545296106
1.45985e-05	-0.0011156011339995835
1.45988e-05	-0.0011264048134695562
1.45990e-05	-0.001137208492939456
1.45993e-05	-0.0011480121724094287
1.45995e-05	-0.0011588158518794015
1.45998e-05	-0.0011696195313493011
1.46000e-05	-0.001180423210819274
1.46003e-05	-0.001191226890289247
1.46005e-05	-0.0012007577917759167
1.46008e-05	-0.001210068844436064
1.46010e-05	-0.0012193798970962114
1.46013e-05	-0.0012278458437320337
1.46015e-05	-0.001236165813952361
1.46018e-05	-0.0012444857841726884
1.46020e-05	-0.0012518185785677979
1.46023e-05	-0.0012589808566202173
1.46025e-05	-0.001264318380686215
1.46028e-05	-0.0012693407122927947
1.46030e-05	-0.0012696678909414187
1.46033e-05	-0.0012691840688639042
1.46035e-05	-0.001262212883372629
1.46038e-05	-0.001254121125988208
1.46040e-05	-0.001246029368603732
1.46043e-05	-0.0012320124881739995
1.46045e-05	-0.0012169721524630096
1.46048e-05	-0.0011964329858331676
1.46050e-05	-0.0011749439979924555
1.46053e-05	-0.0011472540529712924
1.46055e-05	-0.001118493007429678
1.46058e-05	-0.0010842700588598456
1.46060e-05	-0.001049103667688569
1.46063e-05	-0.001009273368326674
1.46065e-05	-0.0009686374651935947
1.46068e-05	-0.0009246031289993088
1.46070e-05	-0.0008775718841331672
1.46073e-05	-0.0008278551462035247
1.46075e-05	-0.0007757524838387041
1.46078e-05	-0.0007215872130680483
1.46080e-05	-0.0006656826363874096
1.46083e-05	-0.0006083621384144136
1.46085e-05	-0.0005498864824744272
1.46088e-05	-0.0004903689195078777
1.46090e-05	-0.00042989732729670254
1.46093e-05	-0.0003687155775551007
1.46095e-05	-0.0003071788682436677
1.46098e-05	-0.0002456572985600376
1.46100e-05	-0.0001845209014853844
1.46103e-05	-0.00012413968236435426
1.46105e-05	-6.484442199482548e-05
1.46108e-05	-6.873516250002471e-06
1.46110e-05	4.955057543149192e-05
1.46113e-05	0.00010410767753855924
1.46115e-05	0.0001564079108346564
1.46118e-05	0.00020605212578026603
1.46120e-05	0.00025264119221873746
1.46123e-05	0.00029577603092483467
1.46125e-05	0.00033506868825049376
1.46128e-05	0.000370202072977316
1.46130e-05	0.00040098813919584454
1.46133e-05	0.00042733047310513603
1.46135e-05	0.00044915722858420343
1.46138e-05	0.000466398772123683
1.46140e-05	0.00047898546254431635
1.46143e-05	0.00048684777846517296
1.46145e-05	0.000489923094284401
1.46148e-05	0.000488193277709001
1.46150e-05	0.0004817209120896804
1.46153e-05	0.00047062610020060647
1.46155e-05	0.0004550442892107525
1.46158e-05	0.000435112262836749
1.46160e-05	0.0004109668587161406
1.46163e-05	0.0003827449726936719
1.46165e-05	0.00035058777773443173
1.46168e-05	0.00031466435887409335
1.46170e-05	0.00027519433232425094
1.46173e-05	0.0002324333124150267
1.46175e-05	0.00018664652876650118
1.46178e-05	0.00013810005886131735
1.46180e-05	8.705996585687078e-05
1.46183e-05	3.379230659346117e-05
1.46185e-05	-2.143413584328983e-05
1.46188e-05	-7.833317459499014e-05
1.46190e-05	-0.0001365869278718511
1.46193e-05	-0.00019611802371274792
1.46195e-05	-0.00025583650084501244
1.46198e-05	-0.0003160154412241903
1.46200e-05	-0.0003762739181027067
1.46203e-05	-0.00043580896321270945
1.46205e-05	-0.0004952190488814968
1.46208e-05	-0.0005526866977298917
1.46210e-05	-0.0006098188265888305
1.46213e-05	-0.0006636906049018876
1.46215e-05	-0.0007169992180342117
1.46218e-05	-0.0007656932346158134
1.46220e-05	-0.000813590165098052
1.46223e-05	-0.0008556592391432135
1.46225e-05	-0.0008967216589116364
1.46228e-05	-0.0009330051927237722
1.46230e-05	-0.0009684632624838843
1.46233e-05	-0.0010007442431719334
1.46235e-05	-0.0010324764405572147
1.46238e-05	-0.0010593760642599878
1.46240e-05	-0.0010854409503506441
1.46243e-05	-0.0011115058364413002
1.46245e-05	-0.001131467462123408
1.46248e-05	-0.0011503748625923934
1.46250e-05	-0.0011692822630613785
1.46253e-05	-0.00118415161855976
1.46255e-05	-0.0011983234765674694
1.46258e-05	-0.0012124953345751784
1.46260e-05	-0.0012222762149242878
1.46263e-05	-0.001231298635196519
1.46265e-05	-0.00124032105546875
1.46268e-05	-0.0012434555618481553
1.46270e-05	-0.001245573040136869
1.46273e-05	-0.0012476905184255827
1.46275e-05	-0.001249807996714282
1.46278e-05	-0.0012519254750029958
1.46280e-05	-0.0012540429532917094
1.46283e-05	-0.0012561604315804089
1.46285e-05	-0.0012582779098691225
1.46288e-05	-0.0012553621017949658
1.46290e-05	-0.001251576886709587
1.46293e-05	-0.001247791671624234
1.46295e-05	-0.0012440064565388553
1.46298e-05	-0.0012402212414534765
1.46300e-05	-0.0012364360263681234
1.46303e-05	-0.0012326508112827446
1.46305e-05	-0.001228865596197366
1.46308e-05	-0.0012239099804110985
1.46310e-05	-0.0012187521995775561
1.46313e-05	-0.0012135944187440138
1.46315e-05	-0.0012089456868954109
1.46318e-05	-0.001204384883832197
1.46320e-05	-0.0011998240807689832
1.46323e-05	-0.0011958152106925487
1.46325e-05	-0.0011919016768186927
1.46328e-05	-0.0011869428453997895
1.46330e-05	-0.0011818034581871307
1.46333e-05	-0.0011735556757201356
1.46335e-05	-0.0011647709755350751
1.46338e-05	-0.0011559862753500742
1.46340e-05	-0.001144054299739309
1.46343e-05	-0.0011315786905808328
1.46345e-05	-0.001119103081422441
1.46348e-05	-0.0011027944498828235
1.46350e-05	-0.001085823734707751
1.46353e-05	-0.0010688530195327938
1.46355e-05	-0.001047486297094342
1.46358e-05	-0.0010253602458074856
1.46360e-05	-0.0010032341945207792
1.46363e-05	-0.0009777553157870975
1.46365e-05	-0.0009516972982004292
1.46368e-05	-0.0009256392806139375
1.46370e-05	-0.0008961402520427237
1.46373e-05	-0.0008660468525453538
1.46375e-05	-0.0008359534530479839
1.46378e-05	-0.0008036077583095908
1.46380e-05	-0.0007708730212765664
1.46383e-05	-0.0007370893137632099
1.46385e-05	-0.0007031244160246704
1.46388e-05	-0.0006683810545301803
1.46390e-05	-0.0006335032278376438
1.46393e-05	-0.0005981190572277257
1.46395e-05	-0.0005626474250823805
1.46398e-05	-0.0005273688329881646
1.46400e-05	-0.000492123584988266
1.46403e-05	-0.00045778810818235515
1.46405e-05	-0.00042360977750293105
1.46408e-05	-0.0003908253754207248
1.46410e-05	-0.0003582817486903945
1.46413e-05	-0.0003276170269251303
1.46415e-05	-0.00029727685119888494
1.46418e-05	-0.0002688137067441175
1.46420e-05	-0.00024218380272292774
1.46423e-05	-0.00021751683507004104
1.46425e-05	-0.00019505451386312662
1.46428e-05	-0.00017504920436604322
1.46430e-05	-0.00015769032446532732
1.46433e-05	-0.00014306347438630652
1.46435e-05	-0.00013120280252510163
1.46438e-05	-0.00012213620558056493
