Time(s)	Current(A)
5.50000e-06	0.004743330954747526
5.50025e-06	0.004717744626174829
5.50050e-06	0.004692158297602132
5.50075e-06	0.0046665719690293485
5.50100e-06	0.004639717561080056
5.50125e-06	0.0045957335552315
5.50150e-06	0.004551749549382794
5.50175e-06	0.004507765543534237
5.50200e-06	0.004463781537685681
5.50225e-06	0.004419797531836974
5.50250e-06	0.004375813525988418
5.50275e-06	0.0043318295201398615
5.50300e-06	0.004289074456919771
5.50325e-06	0.004247250560650758
5.50350e-06	0.004205426664381603
5.50375e-06	0.00416360276811259
5.50400e-06	0.004121778871843577
5.50425e-06	0.004079954975574422
5.50450e-06	0.004038131079305409
5.50475e-06	0.003996785354319753
5.50500e-06	0.003961898910953021
5.50525e-06	0.003927012467586405
5.50550e-06	0.0038921260242197903
5.50575e-06	0.003857239580853057
5.50600e-06	0.0038223531374864425
5.50625e-06	0.0037874666941198273
5.50650e-06	0.0037525802507530947
5.50675e-06	0.0037099139657822975
5.50700e-06	0.0036613529130526223
5.50725e-06	0.003612791860322783
5.50750e-06	0.0035642308075931077
5.50775e-06	0.003515669754863268
5.50800e-06	0.003467108702133593
5.50825e-06	0.003418547649403918
5.50850e-06	0.003368816309416488
5.50875e-06	0.003303276376917173
5.50900e-06	0.0032377364444178586
5.50925e-06	0.0031721965119183224
5.50950e-06	0.0031066565794190077
5.50975e-06	0.0030411166469196936
5.51000e-06	0.002975576714420157
5.51025e-06	0.0029100367819208423
5.51050e-06	0.002838893894005481
5.51075e-06	0.0027635056598965223
5.51100e-06	0.002688117425787819
5.51125e-06	0.0026127291916791156
5.51150e-06	0.0025373409575701568
5.51175e-06	0.002461952723461453
5.51200e-06	0.002386564489352494
5.51225e-06	0.0023113661246742805
5.51250e-06	0.002238732573409907
5.51275e-06	0.0021660990221452872
5.51300e-06	0.0020934654708809138
5.51325e-06	0.0020208319196165407
5.51350e-06	0.001948198368351921
5.51375e-06	0.0018832884219492187
5.51400e-06	0.0018242306328565226
5.51425e-06	0.0017651728437636266
5.51450e-06	0.0017061150546709308
5.51475e-06	0.0016470572655782347
5.51500e-06	0.0015890288941666994
5.51525e-06	0.001544906206625751
5.51550e-06	0.0015007835190848026
5.51575e-06	0.0014570758112997049
5.51600e-06	0.00141897377495768
5.51625e-06	0.001380871738615526
5.51650e-06	0.0013432998645820885
5.51675e-06	0.0013128895825787056
5.51700e-06	0.0012824793005752197
5.51725e-06	0.001252477017405014
5.51750e-06	0.0012279861052705652
5.51775e-06	0.0012034951931360336
5.51800e-06	0.001179298410551601
5.51825e-06	0.0011590748184540404
5.51850e-06	0.0011388512263564112
5.51875e-06	0.0011191438716324133
5.51900e-06	0.0011064100067239933
5.51925e-06	0.0010936761418155303
5.51950e-06	0.0010809422769071104
5.51975e-06	0.0010682084119986903
5.52000e-06	0.0010554745470902273
5.52025e-06	0.0010427406821818073
5.52050e-06	0.0010300068172733442
5.52075e-06	0.0010210273984120274
5.52100e-06	0.0010148927145248652
5.52125e-06	0.0010087580306376819
5.52150e-06	0.0010026233467505196
5.52175e-06	0.000996488662863357
5.52200e-06	0.0009903539789761738
5.52225e-06	0.0009842192950890115
5.52250e-06	0.0009783148328617612
5.52275e-06	0.0009755202741062707
5.52300e-06	0.0009727257153507896
5.52325e-06	0.0009699311565953086
5.52350e-06	0.0009671365978398181
5.52375e-06	0.000964342039084337
5.52400e-06	0.0009615474803288559
5.52425e-06	0.0009598991122656133
5.52450e-06	0.0009591192102045958
5.52475e-06	0.0009583393081435758
5.52500e-06	0.0009575594060825583
5.52525e-06	0.0009567795040215408
5.52550e-06	0.0009559996019605207
5.52575e-06	0.0009556629735851245
5.52600e-06	0.0009613142195653376
5.52625e-06	0.0009669654655455698
5.52650e-06	0.0009729593023215632
5.52675e-06	0.0009835809586748383
5.52700e-06	0.000994202615028149
5.52725e-06	0.0010052344982258972
5.52750e-06	0.001021807849102467
5.52775e-06	0.0010383811999790926
5.52800e-06	0.0010553795981191663
5.52825e-06	0.0010781196626184451
5.52850e-06	0.0011008597271178011
5.52875e-06	0.0011239411293238822
5.52900e-06	0.0011516334240035582
5.52925e-06	0.0011793257186831403
5.52950e-06	0.0012074912575926048
5.52975e-06	0.0012420495219880963
5.53000e-06	0.0012766077863834704
5.53025e-06	0.0013111660507788448
5.53050e-06	0.0013457243151743362
5.53075e-06	0.0013802825795697106
5.53100e-06	0.001414840843965085
5.53125e-06	0.0014517306887281358
5.53150e-06	0.0014903871664728883
5.53175e-06	0.001529043644217641
5.53200e-06	0.0015677001219625245
5.53225e-06	0.001606356599707277
5.53250e-06	0.0016450130774520299
5.53275e-06	0.001683398270908475
5.53300e-06	0.001718118874551194
5.53325e-06	0.001752839478194031
5.53350e-06	0.0017875600818367502
5.53375e-06	0.001822280685479469
5.53400e-06	0.001857001289122306
5.53425e-06	0.001891721892765025
5.53450e-06	0.0019255353936849207
5.53475e-06	0.0019470954780258216
5.53500e-06	0.0019686555623666495
5.53525e-06	0.001990215646707477
5.53550e-06	0.002011775731048378
5.53575e-06	0.002033335815389206
5.53600e-06	0.0020548958997300337
5.53625e-06	0.0020751007672351295
5.53650e-06	0.002076998957862625
5.53675e-06	0.0020788971484901205
5.53700e-06	0.0020807953391176223
5.53725e-06	0.0020826935297451176
5.53750e-06	0.0020845917203726133
5.53775e-06	0.002086489911000115
5.53800e-06	0.0020883881016276105
5.53825e-06	0.0020902862922551123
5.53850e-06	0.002090884922126073
5.53875e-06	0.00207392869419105
5.53900e-06	0.0020569724662559703
5.53925e-06	0.002040016238320947
5.53950e-06	0.0020230600103859245
5.53975e-06	0.002006103782450844
5.54000e-06	0.0019891475545158214
5.54025e-06	0.0019721913265807987
5.54050e-06	0.0019552350986457184
5.54075e-06	0.0019376276035906299
5.54100e-06	0.0019112225962782893
5.54125e-06	0.0018848175889658596
5.54150e-06	0.0018584125816535192
5.54175e-06	0.0018320075743411786
5.54200e-06	0.001805602567028749
5.54225e-06	0.0017791975597164086
5.54250e-06	0.001752804173519926
5.54275e-06	0.0017265677688551116
5.54300e-06	0.001700331364190297
5.54325e-06	0.0016740949595253937
5.54350e-06	0.0016478585548605792
5.54375e-06	0.0016216221501957648
5.54400e-06	0.0015953857455308614
5.54425e-06	0.0015701588831379852
5.54450e-06	0.0015585692215734676
5.54475e-06	0.0015469795600089105
5.54500e-06	0.001535389898444393
5.54525e-06	0.0015238002368798752
5.54550e-06	0.0015122105753153183
5.54575e-06	0.0015006209137508005
5.54600e-06	0.0014890312521862827
5.54625e-06	0.001477441590621726
5.54650e-06	0.0014658519290572081
5.54675e-06	0.0014542622674926513
5.54700e-06	0.0014426726059281335
5.54725e-06	0.0014468403609082623
5.54750e-06	0.001462947473482503
5.54775e-06	0.0014790545860566893
5.54800e-06	0.0014951616986308754
5.54825e-06	0.0015112688112051164
5.54850e-06	0.0015273759237793025
5.54875e-06	0.0015434830363534888
5.54900e-06	0.0015595901489277295
5.54925e-06	0.0015756972615019159
5.54950e-06	0.001591804374076102
5.54975e-06	0.001607911486650343
5.55000e-06	0.0016251670432224545
5.55025e-06	0.001657936126933108
5.55050e-06	0.0016907052106438726
5.55075e-06	0.001723474294354526
5.55100e-06	0.0017562433780652904
5.55125e-06	0.0017890124617759439
5.55150e-06	0.0018217815454865973
5.55175e-06	0.001854754656698614
5.55200e-06	0.0018904838327973611
5.55225e-06	0.001926213008896108
5.55250e-06	0.001961942184994976
5.55275e-06	0.001997671361093723
5.55300e-06	0.0020334005371924696
5.55325e-06	0.0020691297132913377
5.55350e-06	0.0021039305637349723
5.55375e-06	0.0021261913118608582
5.55400e-06	0.0021484520599868192
5.55425e-06	0.002170712808112705
5.55450e-06	0.002192973556238591
5.55475e-06	0.0022152343043645526
5.55500e-06	0.002237495052490438
5.55525e-06	0.0022597558006163996
5.55550e-06	0.0022820165487422855
5.55575e-06	0.0023042772968681715
5.55600e-06	0.002326538044994133
5.55625e-06	0.0023487987931200185
5.55650e-06	0.0023710595412459044
5.55675e-06	0.002393320289371866
5.55700e-06	0.002401775120908565
5.55725e-06	0.0023997692417967007
5.55750e-06	0.00239776336268483
5.55775e-06	0.0023957574835729656
5.55800e-06	0.0023937516044611013
5.55825e-06	0.00239174572534923
5.55850e-06	0.0023897398462373663
5.55875e-06	0.002387733967125502
5.55900e-06	0.002385728088013631
5.55925e-06	0.0023837222089017666
5.55950e-06	0.0023817163297898958
5.55975e-06	0.0023797104506780315
5.56000e-06	0.0023777045715661672
5.56025e-06	0.002374825156827883
5.56050e-06	0.0023601457599741584
5.56075e-06	0.002345466363120434
5.56100e-06	0.0023307869662666596
5.56125e-06	0.002316107569412935
5.56150e-06	0.0023014281725592107
5.56175e-06	0.0022867487757054364
5.56200e-06	0.002272069378851712
5.56225e-06	0.0022573899819979875
5.56250e-06	0.0022421207177411363
5.56275e-06	0.002226404512335295
5.56300e-06	0.0022106883069294534
5.56325e-06	0.0021949721015235586
5.56350e-06	0.002179255896117717
5.56375e-06	0.0021635396907118223
5.56400e-06	0.002147823485305981
5.56425e-06	0.0021321072799001394
5.56450e-06	0.0021166262512426607
5.56475e-06	0.002104322060873779
5.56500e-06	0.0020920178705048976
5.56525e-06	0.002079713680135975
5.56550e-06	0.0020674094897670933
5.56575e-06	0.0020551052993982117
5.56600e-06	0.002042801109029289
5.56625e-06	0.0020304969186604074
5.56650e-06	0.002018192728291526
5.56675e-06	0.002005888537922603
5.56700e-06	0.0019935843475537215
5.56725e-06	0.0019790135692902473
5.56750e-06	0.0019627254026905808
5.56775e-06	0.001946437236090969
5.56800e-06	0.0019301490694913022
5.56825e-06	0.0019138609028916905
5.56850e-06	0.0018975727362920789
5.56875e-06	0.001881284569692412
5.56900e-06	0.0018649964030928003
5.56925e-06	0.0018487082364931887
5.56950e-06	0.001832420069893522
5.56975e-06	0.0018158530342109447
5.57000e-06	0.0017955189510379347
5.57025e-06	0.0017751848678648557
5.57050e-06	0.0017548507846918456
5.57075e-06	0.0017345167015188356
5.57100e-06	0.0017141826183457566
5.57125e-06	0.0016938485351727466
5.57150e-06	0.0016735144519997363
5.57175e-06	0.0016531803688266573
5.57200e-06	0.001632932759941385
5.57225e-06	0.0016138532717566033
5.57250e-06	0.0015947737835718863
5.57275e-06	0.0015756942953871692
5.57300e-06	0.0015566148072023876
5.57325e-06	0.0015375353190176706
5.57350e-06	0.0015184558308329538
5.57375e-06	0.0014993763426481722
5.57400e-06	0.0014802968544634552
5.57425e-06	0.0014618414931667277
5.57450e-06	0.0014518170256835321
5.57475e-06	0.0014417925582003706
5.57500e-06	0.001431768090717209
5.57525e-06	0.0014217436232340135
5.57550e-06	0.001411719155750852
5.57575e-06	0.0014016946882676907
5.57600e-06	0.001391670220784495
5.57625e-06	0.0013816457533013336
5.57650e-06	0.001371621285818138
5.57675e-06	0.0013615968183349765
5.57700e-06	0.001351572350851815
5.57725e-06	0.0013415478833686196
5.57750e-06	0.0013376985214396148
5.57775e-06	0.0013385280225171477
5.57800e-06	0.0013393575235946835
5.57825e-06	0.0013401870246722162
5.57850e-06	0.001341016525749749
5.57875e-06	0.0013418460268272848
5.57900e-06	0.0013426755279048177
5.57925e-06	0.0013435050289823506
5.57950e-06	0.0013443345300598864
5.57975e-06	0.001345164031137419
5.58000e-06	0.001345993532214952
5.58025e-06	0.0013468230332924877
5.58050e-06	0.0013480266351272546
5.58075e-06	0.0013542837025617657
5.58100e-06	0.0013605407699962553
5.58125e-06	0.001366797837430745
5.58150e-06	0.001373054904865256
5.58175e-06	0.0013793119722997457
5.58200e-06	0.0013855690397342353
5.58225e-06	0.0013918261071687464
5.58250e-06	0.001398083174603236
5.58275e-06	0.0014043402420377258
5.58300e-06	0.0014105756060236749
5.58325e-06	0.0014165177932956871
5.58350e-06	0.0014224599805676994
5.58375e-06	0.0014284021678397318
5.58400e-06	0.001434344355111744
5.58425e-06	0.0014402865423837562
5.58450e-06	0.0014462287296557886
5.58475e-06	0.0014521709169278009
5.58500e-06	0.0014581131041998333
5.58525e-06	0.0014640552914718455
5.58550e-06	0.00147069595254062
5.58575e-06	0.0014867718078310224
5.58600e-06	0.0015028476631213702
5.58625e-06	0.001518923518411718
5.58650e-06	0.0015349993737021205
5.58675e-06	0.0015510752289924683
5.58700e-06	0.001567151084282816
5.58725e-06	0.0015832269395732186
5.58750e-06	0.0015993027948635664
5.58775e-06	0.0016153786501539142
5.58800e-06	0.0016314545054443167
5.58825e-06	0.0016487940419997141
5.58850e-06	0.0016832037653289873
5.58875e-06	0.001717613488658377
5.58900e-06	0.0017520232119876502
5.58925e-06	0.0017864329353170399
5.58950e-06	0.001820842658646313
5.58975e-06	0.001855252381975586
5.59000e-06	0.001889662105304976
5.59025e-06	0.001924071828634249
5.59050e-06	0.001958481551963522
5.59075e-06	0.001992891275292912
5.59100e-06	0.002027824271054043
5.59125e-06	0.002069825788277503
5.59150e-06	0.002111827305501106
5.59175e-06	0.002153828822724566
5.59200e-06	0.0021958303399480265
5.59225e-06	0.0022378318571716293
5.59250e-06	0.0022798333743950894
5.59275e-06	0.0023215326417291133
5.59300e-06	0.002359149026610124
5.59325e-06	0.0023967654114910074
5.59350e-06	0.002434381796372018
5.59375e-06	0.0024719981812529016
5.59400e-06	0.0025096145661337847
5.59425e-06	0.0025472309510147957
5.59450e-06	0.002583432997285935
5.59475e-06	0.0026005297320468848
5.59500e-06	0.0026176264668078928
5.59525e-06	0.0026347232015688426
5.59550e-06	0.002651819936329793
5.59575e-06	0.0026689166710908005
5.59600e-06	0.0026860134058517508
5.59625e-06	0.0027031101406127006
5.59650e-06	0.0027202068753737086
5.59675e-06	0.0027373036101346585
5.59700e-06	0.0027544003448956088
5.59725e-06	0.0027714970796566167
5.59750e-06	0.002786701892034357
5.59775e-06	0.002776350047591934
5.59800e-06	0.002765998203149547
5.59825e-06	0.0027556463587071595
5.59850e-06	0.0027452945142647373
5.59875e-06	0.0027349426698223497
5.59900e-06	0.002724590825379962
5.59925e-06	0.00271423898093754
5.59950e-06	0.0027038871364951523
5.59975e-06	0.0026935352920527647
5.60000e-06	0.0026831834476103425
5.60025e-06	0.002672831603167955
5.60050e-06	0.0026615223946910294
5.60075e-06	0.002637280824773298
5.60100e-06	0.002613039254855649
5.60125e-06	0.002588797684938
5.60150e-06	0.002564556115020269
5.60175e-06	0.00254031454510262
5.60200e-06	0.0025160729751848884
5.60225e-06	0.0024918314052672394
5.60250e-06	0.0024675858032648093
5.60275e-06	0.00244328573464786
5.60300e-06	0.0024189856660309927
5.60325e-06	0.0023946855974141257
5.60350e-06	0.002370385528797176
5.60375e-06	0.002346085460180309
5.60400e-06	0.002321785391563442
5.60425e-06	0.0022974853229464926
5.60450e-06	0.0022743157918163207
5.60475e-06	0.0022664179012200935
5.60500e-06	0.0022585200106238395
5.60525e-06	0.0022506221200276123
5.60550e-06	0.002242724229431385
5.60575e-06	0.002234826338835131
5.60600e-06	0.002226928448238904
5.60625e-06	0.00221903055764265
5.60650e-06	0.0022111326670464226
5.60675e-06	0.0022032347764501955
5.60700e-06	0.0021953368858539414
5.60725e-06	0.0021895283395280234
5.60750e-06	0.002211943284255336
5.60775e-06	0.0022343582289827244
5.60800e-06	0.002256773173710037
5.60825e-06	0.002279188118437349
5.60850e-06	0.0023016030631647375
5.60875e-06	0.00232401800789205
5.60900e-06	0.0023464329526193626
5.60925e-06	0.002368847897346751
5.60950e-06	0.002391262842074063
5.60975e-06	0.0024136777868013757
5.61000e-06	0.002437384798380832
5.61025e-06	0.0024785454377562704
5.61050e-06	0.002519706077131849
5.61075e-06	0.002560866716507288
5.61100e-06	0.0026020273558827267
5.61125e-06	0.0026431879952583054
5.61150e-06	0.0026843486346337445
5.61175e-06	0.002725509274009183
5.61200e-06	0.002768070881843243
5.61225e-06	0.002811694000194156
5.61250e-06	0.002855317118545069
5.61275e-06	0.00289894023689613
5.61300e-06	0.0029425633552470428
5.61325e-06	0.002986186473597956
5.61350e-06	0.0030298095919490168
5.61375e-06	0.003072645305871611
5.61400e-06	0.003104844523864275
5.61425e-06	0.0031370437418570484
5.61450e-06	0.0031692429598497124
5.61475e-06	0.003201442177842485
5.61500e-06	0.003233641395835149
5.61525e-06	0.003265840613827813
5.61550e-06	0.0032980398318205864
5.61575e-06	0.0033302390498132503
5.61600e-06	0.00335708461062011
5.61625e-06	0.003379873717927107
5.61650e-06	0.0034026628252340264
5.61675e-06	0.0034254519325409463
5.61700e-06	0.003448241039847943
5.61725e-06	0.003471030147154863
5.61750e-06	0.003493819254461783
5.61775e-06	0.0035166083617687795
5.61800e-06	0.003539188995575898
5.61825e-06	0.0035589535066236273
5.61850e-06	0.0035787180176714236
5.61875e-06	0.003598482528719153
5.61900e-06	0.0036182470397669495
5.61925e-06	0.003638011550814679
5.61950e-06	0.0036577760618624086
5.61975e-06	0.003677540572910205
5.62000e-06	0.003697305083957934
5.62025e-06	0.0037170695950056636
5.62050e-06	0.00373683410605346
5.62075e-06	0.0037565986171011895
5.62100e-06	0.003776363128148919
5.62125e-06	0.0037961276391967154
5.62150e-06	0.0038156941374676923
5.62175e-06	0.00383258581957428
5.62200e-06	0.0038494775016809247
5.62225e-06	0.0038663691837875123
5.62250e-06	0.0038832608658941
5.62275e-06	0.003900152548000745
5.62300e-06	0.003917044230107332
5.62325e-06	0.0039339359122139775
5.62350e-06	0.003950827594320565
5.62375e-06	0.003967181752495152
5.62400e-06	0.00397627487567287
5.62425e-06	0.003985367998850558
5.62450e-06	0.003994461122028245
5.62475e-06	0.0040035542452059635
5.62500e-06	0.00401264736838365
5.62525e-06	0.004021740491561338
5.62550e-06	0.004030833614739056
5.62575e-06	0.0040399267379167434
5.62600e-06	0.004047940161090108
5.62625e-06	0.004041368671760822
5.62650e-06	0.004034797182431558
5.62675e-06	0.004028225693102294
5.62700e-06	0.00401946550556959
5.62725e-06	0.004001828701204259
5.62750e-06	0.003984191896838869
5.62775e-06	0.003966555092473538
5.62800e-06	0.003947601359955514
5.62825e-06	0.003351263479136446
5.62850e-06	-0.004271440865201439
5.62875e-06	-0.010265011700543251
5.62900e-06	-0.00852466493394835
5.62925e-06	-0.006463841962424363
5.62950e-06	-0.00016810246854258477
5.62975e-06	0.004942744793258502
5.63000e-06	0.004824549396206267
5.63025e-06	0.004200305284355807
5.63050e-06	-0.000695876568848155
5.63075e-06	-0.004618643074750253
5.63100e-06	-0.003696835946761259
5.63125e-06	-0.0027121771931377637
5.63150e-06	0.00046424025582048495
5.63175e-06	0.00403100636428124
5.63200e-06	0.005307535670606783
5.63225e-06	0.004603354361091084
5.63250e-06	0.0023070078270451574
5.63275e-06	-7.090807730121383e-05
5.63300e-06	-0.0007249263394796448
5.63325e-06	0.00014706867083763022
5.63350e-06	0.00195489621811493
5.63375e-06	0.0038271538373327897
5.63400e-06	0.004590293003896079
5.63425e-06	0.004117571215796907
5.63450e-06	0.0026522896068276467
5.63475e-06	0.001140593361213091
5.63500e-06	0.0007131940122686868
5.63525e-06	0.0012450809676953542
5.63550e-06	0.002364559434306524
5.63575e-06	0.0035242846253242662
5.63600e-06	0.003988777116900153
5.63625e-06	0.003678666370140932
5.63650e-06	0.0027463920640362852
5.63675e-06	0.0017846333854184345
5.63700e-06	0.001501634579470883
5.63725e-06	0.001819039237064831
5.63750e-06	0.0025039913784569274
5.63775e-06	0.003213642340798245
5.63800e-06	0.0034873390753510057
5.63825e-06	0.0032754442816334307
5.63850e-06	0.002673528276379102
5.63875e-06	0.0020529098806348063
5.63900e-06	0.0018572646577329286
5.63925e-06	0.002037527069495402
5.63950e-06	0.0024478653327565263
5.63975e-06	0.0028735668116042115
5.64000e-06	0.0030261516396991543
5.64025e-06	0.002874615830349978
5.64050e-06	0.0024789136557527886
5.64075e-06	0.0020717155809519324
5.64100e-06	0.001930993974572033
5.64125e-06	0.0020260586029423665
5.64150e-06	0.0022656113770629376
5.64175e-06	0.0025152183324754244
5.64200e-06	0.002594252581113991
5.64225e-06	0.002483380173598485
5.64250e-06	0.002220241737785072
5.64275e-06	0.001950660388089261
5.64300e-06	0.0018488208000238082
5.64325e-06	0.0018955560100256548
5.64350e-06	0.0020337373536370067
5.64375e-06	0.00217922300584057
5.64400e-06	0.0022189453301554637
5.64425e-06	0.002140875743124957
5.64450e-06	0.001968674137896297
5.64475e-06	0.0017937624953837526
5.64500e-06	0.0017253799119415984
5.64525e-06	0.0017522107938213558
5.64550e-06	0.0018397846604882796
5.64575e-06	0.0019362438955098547
5.64600e-06	0.001970777329680751
5.64625e-06	0.0019356128496809397
5.64650e-06	0.0018453347098611119
5.64675e-06	0.0017569683676761714
5.64700e-06	0.0017386951320715893
5.64725e-06	0.0017831781741609566
5.64750e-06	0.00186857750314666
5.64775e-06	0.0019621646791160735
5.64800e-06	0.0020193421751918
5.64825e-06	0.0020350022558024102
5.64850e-06	0.0020180410343612547
