Time(s)	Current(A)
1.80000e-06	0.008372628055926257
1.80025e-06	0.00839509144001066
1.80050e-06	0.008417554824095081
1.80075e-06	0.008440018208179485
1.80100e-06	0.008461685475857498
1.80125e-06	0.008477810278499068
1.80150e-06	0.008493935081140639
1.80175e-06	0.008510059883782223
1.80200e-06	0.008526184686423794
1.80225e-06	0.008542309489065378
1.80250e-06	0.008558434291706949
1.80275e-06	0.00857455909434852
1.80300e-06	0.008590468746323538
1.80325e-06	0.008604880545676284
1.80350e-06	0.00861929234502904
1.80375e-06	0.008633704144381785
1.80400e-06	0.008648115943734531
1.80425e-06	0.008662527743087288
1.80450e-06	0.008676939542440034
1.80475e-06	0.00869135134179279
1.80500e-06	0.008705763141145535
1.80525e-06	0.008720174940498293
1.80550e-06	0.008734586739851037
1.80575e-06	0.008748998539203781
1.80600e-06	0.00876341033855654
1.80625e-06	0.008777822137909284
1.80650e-06	0.00879223393726204
1.80675e-06	0.008807839975625472
1.80700e-06	0.008824160729339605
1.80725e-06	0.008840481483053754
1.80750e-06	0.008856802236767887
1.80775e-06	0.008873122990482034
1.80800e-06	0.008889443744196169
1.80825e-06	0.008905764497910302
1.80850e-06	0.008922085251624448
1.80875e-06	0.008938406005338581
1.80900e-06	0.00895472675905273
1.80925e-06	0.008971047512766863
1.80950e-06	0.00898736826648101
1.80975e-06	0.009003689020195143
1.81000e-06	0.009020009773909278
1.81025e-06	0.009035171708729616
1.81050e-06	0.00904226608816481
1.81075e-06	0.009049360467600012
1.81100e-06	0.009056454847035206
1.81125e-06	0.0090635492264704
1.81150e-06	0.009070643605905601
1.81175e-06	0.009077737985340796
1.81200e-06	0.009084832364775997
1.81225e-06	0.009091926744211191
1.81250e-06	0.009099021123646385
1.81275e-06	0.009106115503081585
1.81300e-06	0.009113209882516779
1.81325e-06	0.00912030426195198
1.81350e-06	0.009127398641387174
1.81375e-06	0.009134493020822376
1.81400e-06	0.00914158740025757
1.81425e-06	0.009148681779692764
1.81450e-06	0.009155776159127965
1.81475e-06	0.00916287053856316
1.81500e-06	0.009169964917998359
1.81525e-06	0.009177059297433553
1.81550e-06	0.009184153676868749
1.81575e-06	0.009191248056303948
1.81600e-06	0.009198342435739143
1.81625e-06	0.009199061038716561
1.81650e-06	0.009195963935402363
1.81675e-06	0.009192866832088167
1.81700e-06	0.009189769728773967
1.81725e-06	0.00918667262545977
1.81750e-06	0.009183575522145571
1.81775e-06	0.009180478418831375
1.81800e-06	0.009177381315517175
1.81825e-06	0.009174284212202979
1.81850e-06	0.00917118710888878
1.81875e-06	0.009168090005574583
1.81900e-06	0.009164992902260385
1.81925e-06	0.009161895798946185
1.81950e-06	0.009158798695631989
1.81975e-06	0.009155701592317793
1.82000e-06	0.009152604489003593
1.82025e-06	0.009149507385689397
1.82050e-06	0.009146410282375197
1.82075e-06	0.009143313179061
1.82100e-06	0.009140216075746803
1.82125e-06	0.009137118972432605
1.82150e-06	0.009134021869118407
1.82175e-06	0.009130924765804209
1.82200e-06	0.009128508564829206
1.82225e-06	0.009130832722647005
1.82250e-06	0.009133156880464803
1.82275e-06	0.0091354810382826
1.82300e-06	0.009137805196100399
1.82325e-06	0.009140129353918197
1.82350e-06	0.009142453511735996
1.82375e-06	0.009144777669553792
1.82400e-06	0.009147101827371591
1.82425e-06	0.00914942598518939
1.82450e-06	0.009151750143007186
1.82475e-06	0.009155902627144755
1.82500e-06	0.009172783695466546
1.82525e-06	0.009189664763788338
1.82550e-06	0.009206545832110143
1.82575e-06	0.009223426900431935
1.82600e-06	0.00924030796875374
1.82625e-06	0.009257189037075533
1.82650e-06	0.009274070105397339
1.82675e-06	0.00929095117371913
1.82700e-06	0.00930783224204092
1.82725e-06	0.009324713310362727
1.82750e-06	0.00934267107651743
1.82775e-06	0.009368124681275236
1.82800e-06	0.009393578286033023
1.82825e-06	0.009419031890790809
1.82850e-06	0.009444485495548615
1.82875e-06	0.009469939100306402
1.82900e-06	0.009495392705064208
1.82925e-06	0.009520846309821994
1.82950e-06	0.009546299914579781
1.82975e-06	0.009571753519337587
1.83000e-06	0.00959667295642234
1.83025e-06	0.009617873583510905
1.83050e-06	0.009639074210599452
1.83075e-06	0.009660274837688016
1.83100e-06	0.009681475464776563
1.83125e-06	0.00970267609186511
1.83150e-06	0.009723876718953674
1.83175e-06	0.00974507734604222
1.83200e-06	0.009766277973130786
1.83225e-06	0.009787478600219333
1.83250e-06	0.009808079436133202
1.83275e-06	0.009824504599260124
1.83300e-06	0.009840929762387034
1.83325e-06	0.009857354925513956
1.83350e-06	0.009873780088640864
1.83375e-06	0.009890205251767772
1.83400e-06	0.009906630414894696
1.83425e-06	0.009923055578021605
1.83450e-06	0.009939480741148527
1.83475e-06	0.009955905904275437
1.83500e-06	0.009972331067402359
1.83525e-06	0.009988756230529267
1.83550e-06	0.010005181393656177
1.83575e-06	0.010022035054890207
1.83600e-06	0.010041871867528526
1.83625e-06	0.010061708680166863
1.83650e-06	0.010081545492805183
1.83675e-06	0.010101382305443501
1.83700e-06	0.010121219118081838
1.83725e-06	0.010141055930720157
1.83750e-06	0.010160892743358494
1.83775e-06	0.010180729555996812
1.83800e-06	0.010200566368635132
1.83825e-06	0.010220403181273468
1.83850e-06	0.010240239993911788
1.83875e-06	0.010260076806550125
1.83900e-06	0.010279602048822745
1.83925e-06	0.010296958176323293
1.83950e-06	0.010314314303823827
1.83975e-06	0.010331670431324361
1.84000e-06	0.01034902655882491
1.84025e-06	0.010366382686325445
1.84050e-06	0.010383738813825993
1.84075e-06	0.010401094941326527
1.84100e-06	0.01041845106882706
1.84125e-06	0.01043580719632761
1.84150e-06	0.010453163323828145
1.84175e-06	0.010470519451328692
1.84200e-06	0.010487875578829227
1.84225e-06	0.010503753144016987
1.84250e-06	0.010509337139253791
1.84275e-06	0.010514921134490592
1.84300e-06	0.010520505129727397
1.84325e-06	0.010526089124964196
1.84350e-06	0.010531673120200997
1.84375e-06	0.010537257115437801
1.84400e-06	0.010542841110674602
1.84425e-06	0.010548425105911407
1.84450e-06	0.010554009101148207
1.84475e-06	0.010559593096385012
1.84500e-06	0.010565177091621813
1.84525e-06	0.010570761086858614
1.84550e-06	0.010575030522749688
1.84575e-06	0.010570148157284524
1.84600e-06	0.010565265791819356
1.84625e-06	0.010560383426354191
1.84650e-06	0.010555501060889027
1.84675e-06	0.010550618695423859
1.84700e-06	0.010545736329958694
1.84725e-06	0.010540853964493526
1.84750e-06	0.010535971599028362
1.84775e-06	0.010531089233563199
1.84800e-06	0.010526206868098029
1.84825e-06	0.010521324502632866
1.84850e-06	0.010516442137167696
1.84875e-06	0.010511559771702534
1.84900e-06	0.010506677406237364
1.84925e-06	0.010501487425884352
1.84950e-06	0.010494155868312465
1.84975e-06	0.010486824310740571
1.85000e-06	0.010479492753168682
1.85025e-06	0.010472161195596788
1.85050e-06	0.0104648296380249
1.85075e-06	0.010457498080453011
1.85100e-06	0.010450166522881117
1.85125e-06	0.01044283496530923
1.85150e-06	0.010435503407737336
1.85175e-06	0.010428171850165448
1.85200e-06	0.01042084029259356
1.85225e-06	0.010413508735021665
1.85250e-06	0.010406177177449778
1.85275e-06	0.010398845619877884
1.85300e-06	0.010391222037283777
1.85325e-06	0.010381565412208296
1.85350e-06	0.010371908787132823
1.85375e-06	0.01036225216205735
1.85400e-06	0.01035259553698187
1.85425e-06	0.010342938911906397
1.85450e-06	0.010333282286830916
1.85475e-06	0.010323625661755443
1.85500e-06	0.01031396903667997
1.85525e-06	0.01030431241160449
1.85550e-06	0.010294655786529017
1.85575e-06	0.010284999161453536
1.85600e-06	0.010275342536378063
1.85625e-06	0.01026568591130259
1.85650e-06	0.01025602928622711
1.85675e-06	0.010246372661151637
1.85700e-06	0.010236716036076156
1.85725e-06	0.010227059411000683
1.85750e-06	0.010217095914464016
1.85775e-06	0.010204996016354183
1.85800e-06	0.010192896118244348
1.85825e-06	0.010180796220134505
1.85850e-06	0.010168696322024672
1.85875e-06	0.010156596423914829
1.85900e-06	0.010144496525804994
1.85925e-06	0.010132396627695162
1.85950e-06	0.010120296729585318
1.85975e-06	0.010108196831475484
1.86000e-06	0.01009609693336564
1.86025e-06	0.010083997035255808
1.86050e-06	0.010071897137145973
1.86075e-06	0.01005979723903613
1.86100e-06	0.010047697340926297
1.86125e-06	0.010035597442816454
1.86150e-06	0.01002349754470662
1.86175e-06	0.010011397646596776
1.86200e-06	0.009998926137817941
1.86225e-06	0.009983867521020812
1.86250e-06	0.00996880890422367
1.86275e-06	0.009953750287426542
1.86300e-06	0.0099386916706294
1.86325e-06	0.009923633053832273
1.86350e-06	0.009908574437035144
1.86375e-06	0.009893515820238003
1.86400e-06	0.009866751697591056
1.86425e-06	0.009832982189388155
1.86450e-06	0.009799212681185282
1.86475e-06	0.00976544317298241
1.86500e-06	0.009731673664779509
1.86525e-06	0.009697904156576636
1.86550e-06	0.009664134648373734
1.86575e-06	0.009627604986997393
1.86600e-06	0.009571859476879
1.86625e-06	0.009516113966760654
1.86650e-06	0.009460368456642308
1.86675e-06	0.009404622946523914
1.86700e-06	0.009348877436405568
1.86725e-06	0.009293131926287175
1.86750e-06	0.009237386416168829
1.86775e-06	0.009181640906050484
1.86800e-06	0.009125895395932091
1.86825e-06	0.009070149885813745
1.86850e-06	0.009009632880530397
1.86875e-06	0.008946260282012886
1.86900e-06	0.008882887683495376
1.86925e-06	0.00881951508497781
1.86950e-06	0.008756142486460299
1.86975e-06	0.008692769887942734
1.87000e-06	0.008629397289425222
1.87025e-06	0.008566024690907658
1.87050e-06	0.008502652092390147
1.87075e-06	0.008439279493872635
1.87100e-06	0.008378150222898315
1.87125e-06	0.008332638723851038
1.87150e-06	0.008287127224803723
1.87175e-06	0.008241615725756447
1.87200e-06	0.00819610422670917
1.87225e-06	0.008150592727661854
1.87250e-06	0.008105081228614577
1.87275e-06	0.008059569729567262
1.87300e-06	0.008033640482190057
1.87325e-06	0.00801943061069926
1.87350e-06	0.00800522073920845
1.87375e-06	0.007991010867717653
1.87400e-06	0.007976800996226843
1.87425e-06	0.007962591124736046
1.87450e-06	0.007948381253245236
1.87475e-06	0.007938971655215211
1.87500e-06	0.00796298097379402
1.87525e-06	0.007986990292372851
1.87550e-06	0.00801099961095166
1.87575e-06	0.008035008929530492
1.87600e-06	0.008059018248109302
1.87625e-06	0.008083027566688111
1.87650e-06	0.008107036885266941
1.87675e-06	0.008131046203845752
1.87700e-06	0.008155055522424582
1.87725e-06	0.008179064841003392
1.87750e-06	0.008219520419716827
1.87775e-06	0.008269818579747599
1.87800e-06	0.00832011673977833
1.87825e-06	0.008370414899809102
1.87850e-06	0.008420713059839833
1.87875e-06	0.008471011219870563
1.87900e-06	0.008521309379901336
1.87925e-06	0.008571607539932066
1.87950e-06	0.008621905699962839
1.87975e-06	0.00867220385999357
1.88000e-06	0.008722063750396669
1.88025e-06	0.008768872461266291
1.88050e-06	0.008815681172135915
1.88075e-06	0.008862489883005578
1.88100e-06	0.0089092985938752
1.88125e-06	0.008956107304744864
1.88150e-06	0.009002916015614487
1.88175e-06	0.00904972472648411
1.88200e-06	0.009096533437353773
1.88225e-06	0.00912574310506665
1.88250e-06	0.009144420286247451
1.88275e-06	0.009163097467428237
1.88300e-06	0.00918177464860902
1.88325e-06	0.009200451829789822
1.88350e-06	0.009219129010970606
1.88375e-06	0.009237806192151407
1.88400e-06	0.009256483373332191
1.88425e-06	0.009270060209889155
1.88450e-06	0.009248129071112558
1.88475e-06	0.009226197932335962
1.88500e-06	0.009204266793559346
1.88525e-06	0.00918233565478275
1.88550e-06	0.009160404516006134
1.88575e-06	0.009138473377229537
1.88600e-06	0.009116542238452941
1.88625e-06	0.009094611099676325
1.88650e-06	0.00907267996089973
1.88675e-06	0.009050748822123113
1.88700e-06	0.009009767493061349
1.88725e-06	0.008957385210503405
1.88750e-06	0.008905002927945417
1.88775e-06	0.008852620645387473
1.88800e-06	0.008800238362829485
1.88825e-06	0.008747856080271541
1.88850e-06	0.008695473797713554
1.88875e-06	0.00864309151515561
1.88900e-06	0.008590709232597665
1.88925e-06	0.008538326950039678
1.88950e-06	0.008485647555434373
1.88975e-06	0.008430899703101872
1.89000e-06	0.008376151850769419
1.89025e-06	0.008321403998436963
1.89050e-06	0.008266656146104463
1.89075e-06	0.008211908293772009
1.89100e-06	0.008157160441439507
1.89125e-06	0.008102412589107053
1.89150e-06	0.0080476647367746
1.89175e-06	0.008007865182724032
1.89200e-06	0.007977011725851682
1.89225e-06	0.007946158268979306
1.89250e-06	0.007915304812106956
1.89275e-06	0.00788445135523458
1.89300e-06	0.007853597898362232
1.89325e-06	0.007822744441489882
1.89350e-06	0.0077918909846175066
1.89375e-06	0.00776606178693238
1.89400e-06	0.0077752108670747664
1.89425e-06	0.007784359947217145
1.89450e-06	0.007793509027359524
1.89475e-06	0.007802658107501911
1.89500e-06	0.0078118071876442895
1.89525e-06	0.007820956267786677
1.89550e-06	0.007830105347929056
1.89575e-06	0.007839254428071435
1.89600e-06	0.00784840350821382
1.89625e-06	0.007861864665263483
1.89650e-06	0.007905345974230395
1.89675e-06	0.00794882728319727
1.89700e-06	0.007992308592164182
1.89725e-06	0.008035789901131057
1.89750e-06	0.008079271210097933
1.89775e-06	0.008122752519064844
1.89800e-06	0.00816623382803172
1.89825e-06	0.00820971513699863
1.89850e-06	0.008253196445965507
1.89875e-06	0.008297960734625024
1.89900e-06	0.008351656970953147
1.89925e-06	0.008405353207281224
1.89950e-06	0.008459049443609347
1.89975e-06	0.008512745679937424
1.90000e-06	0.008566441916265502
1.90025e-06	0.008620138152593625
1.90050e-06	0.0086738343889217
1.90075e-06	0.008727530625249823
1.90100e-06	0.0087812268615779
1.90125e-06	0.008821548151381368
1.90150e-06	0.008853864946686567
1.90175e-06	0.008886181741991768
1.90200e-06	0.008918498537296995
1.90225e-06	0.008950815332602197
1.90250e-06	0.008983132127907424
1.90275e-06	0.009015448923212625
1.90300e-06	0.009047765718517824
1.90325e-06	0.009080082513823053
1.90350e-06	0.0091068787284159
1.90375e-06	0.00909524133544464
1.90400e-06	0.00908360394247339
1.90425e-06	0.00907196654950214
1.90450e-06	0.009060329156530881
1.90475e-06	0.009048691763559632
1.90500e-06	0.009037054370588372
1.90525e-06	0.009025416977617122
1.90550e-06	0.009013779584645863
1.90575e-06	0.008997193179400878
1.90600e-06	0.00894615235613994
1.90625e-06	0.008895111532878959
1.90650e-06	0.00884407070961802
1.90675e-06	0.008793029886357039
1.90700e-06	0.0087419890630961
1.90725e-06	0.008690948239835163
1.90750e-06	0.008639907416574224
1.90775e-06	0.008588866593313243
1.90800e-06	0.008535409700586565
1.90825e-06	0.008465132427808173
1.90850e-06	0.0083948551550299
1.90875e-06	0.008324577882251508
1.90900e-06	0.008254300609473117
1.90925e-06	0.008184023336694844
1.90950e-06	0.008113746063916452
1.90975e-06	0.00804346879113806
1.91000e-06	0.007973191518359787
1.91025e-06	0.007908436793532968
1.91050e-06	0.007846987143953578
1.91075e-06	0.007785537494374187
1.91100e-06	0.0077240878447949
1.91125e-06	0.007662638195215509
1.91150e-06	0.007601188545636119
1.91175e-06	0.007539738896056832
1.91200e-06	0.007478289246477441
1.91225e-06	0.007421232115608644
1.91250e-06	0.007394755162649121
1.91275e-06	0.007368278209689643
1.91300e-06	0.007341801256730121
1.91325e-06	0.007315324303770598
1.91350e-06	0.00728884735081112
1.91375e-06	0.007262370397851598
1.91400e-06	0.007235893444892075
1.91425e-06	0.007209416491932597
1.91450e-06	0.007208353075219802
1.91475e-06	0.00722249887902196
1.91500e-06	0.007236644682824118
1.91525e-06	0.007250790486626252
1.91550e-06	0.00726493629042841
1.91575e-06	0.007279082094230568
1.91600e-06	0.007293227898032702
1.91625e-06	0.00730737370183486
1.91650e-06	0.007325545904769505
1.91675e-06	0.007371749405899915
1.91700e-06	0.007417952907030245
1.91725e-06	0.007464156408160655
1.91750e-06	0.007510359909291065
1.91775e-06	0.007556563410421395
1.91800e-06	0.007602766911551805
1.91825e-06	0.0076489704126822145
1.91850e-06	0.007695173913812545
1.91875e-06	0.007741377414942955
1.91900e-06	0.007793272575803457
1.91925e-06	0.007848574020114343
1.91950e-06	0.007903875464425137
1.91975e-06	0.007959176908736022
1.92000e-06	0.008014478353046908
1.92025e-06	0.0080697797973577
1.92050e-06	0.008125081241668587
1.92075e-06	0.008180382685979473
1.92100e-06	0.008235684130290358
1.92125e-06	0.008287894353938723
1.92150e-06	0.008318583877494061
1.92175e-06	0.0083492734010494
1.92200e-06	0.008379962924604686
1.92225e-06	0.008410652448160024
1.92250e-06	0.008441341971715362
1.92275e-06	0.008472031495270649
1.92300e-06	0.008502721018825987
1.92325e-06	0.008533410542381326
1.92350e-06	0.008564100065936664
1.92375e-06	0.00859478958949195
1.92400e-06	0.008625479113047289
1.92425e-06	0.008656168636602627
1.92450e-06	0.008686858160157913
1.92475e-06	0.008717547683713252
1.92500e-06	0.00874823720726859
1.92525e-06	0.008776306439298434
1.92550e-06	0.008786133522275117
1.92575e-06	0.008795960605251816
1.92600e-06	0.008805787688228515
1.92625e-06	0.008815614771205196
1.92650e-06	0.008825441854181895
1.92675e-06	0.008835268937158594
1.92700e-06	0.008845096020135276
1.92725e-06	0.008854923103111974
1.92750e-06	0.008864750186088673
1.92775e-06	0.008874577269065372
1.92800e-06	0.008884404352042055
1.92825e-06	0.008894231435018754
1.92850e-06	0.008904058517995453
1.92875e-06	0.008913885600972135
1.92900e-06	0.008923712683948834
1.92925e-06	0.008932638985394047
1.92950e-06	0.008935294156011611
1.92975e-06	0.008937949326629172
1.93000e-06	0.008940604497246738
1.93025e-06	0.008943259667864302
1.93050e-06	0.008945914838481863
1.93075e-06	0.008948570009099427
1.93100e-06	0.008951225179716993
1.93125e-06	0.008953880350334552
1.93150e-06	0.008956535520952118
1.93175e-06	0.008959190691569682
1.93200e-06	0.008961845862187248
1.93225e-06	0.008964501032804807
1.93250e-06	0.008967156203422373
1.93275e-06	0.008969811374039937
1.93300e-06	0.008972466544657498
1.93325e-06	0.008978047590547036
1.93350e-06	0.008985379682878339
1.93375e-06	0.008992711775209642
1.93400e-06	0.00900004386754093
1.93425e-06	0.009007375959872234
1.93450e-06	0.009014708052203535
1.93475e-06	0.009022040144534825
1.93500e-06	0.009029372236866126
1.93525e-06	0.00903670432919743
1.93550e-06	0.00904403642152872
1.93575e-06	0.009051368513860021
1.93600e-06	0.009058700606191324
1.93625e-06	0.009066032698522625
1.93650e-06	0.009073364790853916
1.93675e-06	0.009080696883185217
1.93700e-06	0.009088831984636047
1.93725e-06	0.009102557537343934
1.93750e-06	0.009116283090051846
1.93775e-06	0.009130008642759755
1.93800e-06	0.009143734195467643
1.93825e-06	0.009157459748175554
1.93850e-06	0.009171185300883464
1.93875e-06	0.009184910853591374
1.93900e-06	0.009198636406299261
1.93925e-06	0.009212361959007173
1.93950e-06	0.00922592275562351
1.93975e-06	0.009238336540485054
1.94000e-06	0.009250750325346618
1.94025e-06	0.009263164110208184
1.94050e-06	0.009275577895069748
1.94075e-06	0.00928799167993129
1.94100e-06	0.009300405464792856
1.94125e-06	0.00931281924965442
1.94150e-06	0.009325233034515963
1.94175e-06	0.00933764681937753
1.94200e-06	0.009348118883641674
1.94225e-06	0.009345072926638357
1.94250e-06	0.009342026969635035
1.94275e-06	0.009338981012631713
1.94300e-06	0.00933593505562839
1.94325e-06	0.009332889098625072
1.94350e-06	0.00932984314162175
1.94375e-06	0.009322611616227815
1.94400e-06	0.0092862406757214
1.94425e-06	0.009249869735214925
1.94450e-06	0.009213498794708449
1.94475e-06	0.009177127854201973
1.94500e-06	0.009140756913695558
1.94525e-06	0.009104385973189083
1.94550e-06	0.009063299900888262
1.94575e-06	0.008989387657840037
1.94600e-06	0.008915475414791688
1.94625e-06	0.008841563171743339
1.94650e-06	0.008767650928695112
1.94675e-06	0.008693738685646763
1.94700e-06	0.008619826442598413
1.94725e-06	0.008545914199550062
1.94750e-06	0.008472001956501838
1.94775e-06	0.008395298607624556
1.94800e-06	0.008299163921402878
1.94825e-06	0.008203029235181361
1.94850e-06	0.008106894548959681
1.94875e-06	0.008010759862738004
1.94900e-06	0.007914625176516324
1.94925e-06	0.007818490490294807
1.94950e-06	0.007722355804073129
1.94975e-06	0.00762622111785145
1.95000e-06	0.007530418049322196
1.95025e-06	0.007436923662599552
1.95050e-06	0.0073434292758769075
1.95075e-06	0.007251001368533453
1.95100e-06	0.007165998160164436
1.95125e-06	0.0070809949517954196
1.95150e-06	0.0069977247724173275
1.95175e-06	0.006926519728873076
