Time(s)	Current(A)
1.37500e-05	-0.005884141958386949
1.37503e-05	-0.005933382845552018
1.37505e-05	-0.005982623732717088
1.37508e-05	-0.006032004406693898
1.37510e-05	-0.006081617124396883
1.37513e-05	-0.006130822998579193
1.37515e-05	-0.0061793535194501455
1.37518e-05	-0.006227064313649514
1.37520e-05	-0.0062734143755429775
1.37523e-05	-0.006318067447128565
1.37525e-05	-0.0063599035437232965
1.37528e-05	-0.006401739640318028
1.37530e-05	-0.006437719969383879
1.37533e-05	-0.0064639798241437375
1.37535e-05	-0.006490239678903597
1.37538e-05	-0.006516499533663278
1.37540e-05	-0.006542759388423137
1.37543e-05	-0.006569019243182996
1.37545e-05	-0.006595279097942677
1.37548e-05	-0.006621538952702536
1.37550e-05	-0.0066477988074623955
1.37553e-05	-0.006674058662222076
1.37555e-05	-0.006700318516981935
1.37558e-05	-0.006726578371741794
1.37560e-05	-0.006739230439488964
1.37563e-05	-0.006749955266812236
1.37565e-05	-0.0067606800941355065
1.37568e-05	-0.0067714049214587044
1.37570e-05	-0.006782129748781975
1.37573e-05	-0.006792854576105246
1.37575e-05	-0.006803579403428517
1.37578e-05	-0.006814304230751715
1.37580e-05	-0.0068250290580749865
1.37583e-05	-0.006835753885398257
1.37585e-05	-0.006846478712721455
1.37588e-05	-0.0068543903835920055
1.37590e-05	-0.0068576322626905635
1.37593e-05	-0.0068608741417891
1.37595e-05	-0.006864116020887658
1.37598e-05	-0.006867357899986216
1.37600e-05	-0.006870599779084752
1.37603e-05	-0.00687384165818331
1.37605e-05	-0.006877083537281869
1.37608e-05	-0.006880325416380405
1.37610e-05	-0.006881003043918998
1.37613e-05	-0.006881317502247133
1.37615e-05	-0.006881631960575266
1.37618e-05	-0.0068819464189034014
1.37620e-05	-0.006882260877231536
1.37623e-05	-0.006882575335559669
1.37625e-05	-0.006882889793887804
1.37628e-05	-0.0068832042522159395
1.37630e-05	-0.006883233833578569
1.37633e-05	-0.006882790524033051
1.37635e-05	-0.006882347214487532
1.37638e-05	-0.006880640425896202
1.37640e-05	-0.006876836283619757
1.37643e-05	-0.006873032141343311
1.37645e-05	-0.006867266023615309
1.37648e-05	-0.006858243060071576
1.37650e-05	-0.006849220096527843
1.37653e-05	-0.006837417682791702
1.37655e-05	-0.006821001429100333
1.37658e-05	-0.006804585175408963
1.37660e-05	-0.006788168921717593
1.37663e-05	-0.006771752668026334
1.37665e-05	-0.006755336414334965
1.37668e-05	-0.0067299924342904445
1.37670e-05	-0.006703384040339729
1.37673e-05	-0.006676775646388833
1.37675e-05	-0.006650167252437937
1.37678e-05	-0.006623558858487221
1.37680e-05	-0.006593984339097399
1.37683e-05	-0.0065594861020239785
1.37685e-05	-0.00652498786495079
1.37688e-05	-0.006490489627877369
1.37690e-05	-0.006455991390803948
1.37693e-05	-0.006419937414919158
1.37695e-05	-0.00638130093911769
1.37698e-05	-0.006342664463316222
1.37700e-05	-0.006304027987515016
1.37703e-05	-0.006265391511713548
1.37705e-05	-0.00622640626037597
1.37708e-05	-0.006186842047592067
1.37710e-05	-0.006147440204586412
1.37713e-05	-0.006108530921323122
1.37715e-05	-0.006070282464377862
1.37718e-05	-0.006032848669867154
1.37720e-05	-0.005996353319747569
1.37723e-05	-0.005960970410468933
1.37725e-05	-0.005926931050138339
1.37728e-05	-0.005894481864176547
1.37730e-05	-0.0058638691874047435
1.37733e-05	-0.005835339004519989
1.37735e-05	-0.005809107308645931
1.37738e-05	-0.005785287003040566
1.37740e-05	-0.005764343023570925
1.37743e-05	-0.005745660925554782
1.37745e-05	-0.005728859691042942
1.37748e-05	-0.005715180657897726
1.37750e-05	-0.005703474308147592
1.37753e-05	-0.005695042579218282
1.37755e-05	-0.005689099703271187
1.37758e-05	-0.005687288280863556
1.37760e-05	-0.0056854768584559245
1.37763e-05	-0.005687509983182047
1.37765e-05	-0.00569592499063784
1.37768e-05	-0.005704339998093633
1.37770e-05	-0.005712755005549368
1.37773e-05	-0.005721170013005161
1.37775e-05	-0.005729585020460954
1.37778e-05	-0.0057476681902174
1.37780e-05	-0.005767120640167729
1.37783e-05	-0.005786573090118058
1.37785e-05	-0.005806025540068255
1.37788e-05	-0.0058254779900185835
1.37790e-05	-0.005847683084492478
1.37793e-05	-0.005874457521969488
1.37795e-05	-0.005901231959446679
1.37798e-05	-0.005928006396923871
1.37800e-05	-0.005954780834400881
1.37803e-05	-0.005981555271878072
1.37805e-05	-0.006009040460083755
1.37808e-05	-0.006037705482387222
1.37810e-05	-0.006066370504690883
1.37813e-05	-0.006095035526994543
1.37815e-05	-0.00612370054929801
1.37818e-05	-0.00615236557160167
1.37820e-05	-0.006179996620821776
1.37823e-05	-0.006205911292341992
1.37825e-05	-0.006231825963862385
1.37828e-05	-0.006256139695626197
1.37830e-05	-0.00627779589467416
1.37833e-05	-0.006299452093721977
1.37835e-05	-0.006317735681361829
1.37838e-05	-0.006330420791533477
1.37840e-05	-0.006343105901705038
1.37843e-05	-0.006355791011876685
1.37845e-05	-0.006368476122048333
1.37848e-05	-0.006381161232219894
1.37850e-05	-0.006393846342391541
1.37853e-05	-0.006406531452563188
1.37855e-05	-0.006408431506994471
1.37858e-05	-0.006408804098112489
1.37860e-05	-0.006409176689230508
1.37863e-05	-0.0064095492803485235
1.37865e-05	-0.006409921871466542
1.37868e-05	-0.0064102944625845605
1.37870e-05	-0.006410667053702576
1.37873e-05	-0.006407325836383356
1.37875e-05	-0.006397819760341214
1.37878e-05	-0.006388313684299138
1.37880e-05	-0.006378807608256997
1.37883e-05	-0.0063693015322148555
1.37885e-05	-0.006359795456172779
1.37888e-05	-0.006350289380130637
1.37890e-05	-0.0063386474256241
1.37893e-05	-0.006323459949261702
1.37895e-05	-0.006308272472899201
1.37898e-05	-0.0062930849965367
1.37900e-05	-0.006277897520174302
1.37903e-05	-0.006262710043811802
1.37905e-05	-0.0062475225674493
1.37908e-05	-0.006231802878340595
1.37910e-05	-0.006215199725141638
1.37913e-05	-0.0061985965719426805
1.37915e-05	-0.006182159493996013
1.37918e-05	-0.006165998098138391
1.37920e-05	-0.0061498367022806595
1.37923e-05	-0.0061345196292709025
1.37925e-05	-0.0061206041178019505
1.37928e-05	-0.006106688606332905
1.37930e-05	-0.006092773094863858
1.37933e-05	-0.006078857583394906
1.37935e-05	-0.006066638541736325
1.37938e-05	-0.006054659767301335
1.37940e-05	-0.006042680992866426
1.37943e-05	-0.006030702218431436
1.37945e-05	-0.006018198355985759
1.37948e-05	-0.006004822856389652
1.37950e-05	-0.005991447356793453
1.37953e-05	-0.005977368780009261
1.37955e-05	-0.005962123107073123
1.37958e-05	-0.005946877434136882
1.37960e-05	-0.005931631761200641
1.37963e-05	-0.005916386088264503
1.37965e-05	-0.005901140415328263
1.37968e-05	-0.005884513330077561
1.37970e-05	-0.005865593123923303
1.37973e-05	-0.005846672917768916
1.37975e-05	-0.00582775271161453
1.37978e-05	-0.0058088325054602725
1.37980e-05	-0.005789912299305886
1.37983e-05	-0.0057699320650436365
1.37985e-05	-0.005748192202184535
1.37988e-05	-0.005726452339325286
1.37990e-05	-0.005704712476466037
1.37993e-05	-0.005682972613606935
1.37995e-05	-0.005661232750747686
1.37998e-05	-0.005638799470809506
1.38000e-05	-0.005616267983761834
1.38003e-05	-0.005593736496714314
1.38005e-05	-0.005571205009666642
1.38008e-05	-0.005548673522618969
1.38010e-05	-0.005526385108819254
1.38013e-05	-0.0055045001924690085
1.38015e-05	-0.005483000762104838
1.38018e-05	-0.005462141231909385
1.38020e-05	-0.0054415984759607445
1.38023e-05	-0.005421838550521912
1.38025e-05	-0.005402812983762129
1.38028e-05	-0.005384656292269188
1.38030e-05	-0.005367502646017946
1.38033e-05	-0.00535148691172007
1.38035e-05	-0.005337000393552111
1.38038e-05	-0.005323786556032823
1.38040e-05	-0.005311650048558189
1.38043e-05	-0.005301301890600993
1.38045e-05	-0.005292069576274616
1.38048e-05	-0.005284689543362768
1.38050e-05	-0.005278760976644294
1.38053e-05	-0.005275241819075672
1.38055e-05	-0.005271722661507074
1.38058e-05	-0.005270630729876264
1.38060e-05	-0.005273567951945227
1.38063e-05	-0.005276505174014171
1.38065e-05	-0.005279442396083135
1.38068e-05	-0.005282379618152098
1.38070e-05	-0.005285316840221042
1.38073e-05	-0.005294612437335531
1.38075e-05	-0.005304808556882447
1.38078e-05	-0.005315004676429293
1.38080e-05	-0.005325200795976208
1.38083e-05	-0.0053353969155231235
1.38085e-05	-0.005347142401632534
1.38088e-05	-0.0053614598098366125
1.38090e-05	-0.005375777218040691
1.38093e-05	-0.005391707922262661
1.38095e-05	-0.00540786711399019
1.38098e-05	-0.005424392429873675
1.38100e-05	-0.005441768724750159
1.38103e-05	-0.005459548759242451
1.38105e-05	-0.005477328793734864
1.38108e-05	-0.005495183346181281
1.38110e-05	-0.005513161597161536
1.38113e-05	-0.0055311398481419135
1.38115e-05	-0.005548811390926335
1.38118e-05	-0.005565973803331233
1.38120e-05	-0.005583136215736247
1.38123e-05	-0.005599574922843284
1.38125e-05	-0.005614812291486465
1.38128e-05	-0.005630049660129748
1.38130e-05	-0.005644142825137935
1.38133e-05	-0.005656336631607293
1.38135e-05	-0.0056685304380767335
1.38138e-05	-0.005678514239933742
1.38140e-05	-0.005684829471789132
1.38143e-05	-0.005691144703644564
1.38145e-05	-0.005697459935499997
1.38148e-05	-0.005703775167355387
1.38150e-05	-0.005710090399210819
1.38153e-05	-0.005716405631066252
1.38155e-05	-0.005719597110971171
1.38158e-05	-0.005717603215861957
1.38160e-05	-0.005715609320752742
1.38163e-05	-0.005713615425643541
1.38165e-05	-0.005711621530534327
1.38168e-05	-0.005709627635425112
1.38170e-05	-0.005707633740315911
1.38173e-05	-0.005703090813305061
1.38175e-05	-0.005694316536768817
1.38178e-05	-0.0056855422602325725
1.38180e-05	-0.0056767679836963875
1.38183e-05	-0.005667993707160143
1.38185e-05	-0.005659219430623899
1.38188e-05	-0.005650445154087713
1.38190e-05	-0.005638086695662358
1.38193e-05	-0.0056252206175744415
1.38195e-05	-0.005612354539486612
1.38198e-05	-0.005599488461398695
1.38200e-05	-0.005586622383310778
1.38203e-05	-0.005573756305222949
1.38205e-05	-0.005560442890484181
1.38208e-05	-0.005546386904526797
1.38210e-05	-0.005532330918569508
1.38213e-05	-0.00551835639468242
1.38215e-05	-0.005504517096444063
1.38218e-05	-0.0054906777982058
1.38220e-05	-0.005477133333140913
1.38223e-05	-0.005464078286120597
1.38225e-05	-0.005451303775563789
1.38228e-05	-0.005439225507088567
1.38230e-05	-0.005427793076015279
1.38233e-05	-0.00541709607139328
1.38235e-05	-0.005407328282479197
1.38238e-05	-0.005398977814163488
1.38240e-05	-0.005392670437694048
1.38243e-05	-0.005389185416283127
1.38245e-05	-0.005387947455750815
1.38248e-05	-0.005388431140054371
1.38250e-05	-0.0053917727254521024
1.38253e-05	-0.005396770832712624
1.38255e-05	-0.005404518738041467
1.38258e-05	-0.005414698630456723
1.38260e-05	-0.005428915579999087
1.38263e-05	-0.0054431325295414505
1.38265e-05	-0.005461209633234819
1.38268e-05	-0.005485694527049902
1.38270e-05	-0.0055101794208649866
1.38273e-05	-0.005534664314679904
1.38275e-05	-0.005559149208494988
1.38278e-05	-0.005583634102310072
1.38280e-05	-0.005617459806230956
1.38283e-05	-0.005652608428191076
1.38285e-05	-0.005687757050151196
1.38288e-05	-0.005722905672111077
1.38290e-05	-0.005758054294071197
1.38293e-05	-0.00579518267351105
1.38295e-05	-0.005835597416636216
1.38298e-05	-0.005876012159761654
1.38300e-05	-0.0059171203808550555
1.38303e-05	-0.005959379763559663
1.38305e-05	-0.006001639146264557
1.38308e-05	-0.006043813448956217
1.38310e-05	-0.006085846520275194
1.38313e-05	-0.006127879591594457
1.38315e-05	-0.006169024749689203
1.38318e-05	-0.006208695986958971
1.38320e-05	-0.006248367224229009
1.38323e-05	-0.006286657858401925
1.38325e-05	-0.006322656714955593
1.38328e-05	-0.006358655571509506
1.38330e-05	-0.006387453003199273
1.38333e-05	-0.006409678071970252
1.38335e-05	-0.006431903140741382
1.38338e-05	-0.00646876783760744
1.38340e-05	-0.01353259647900959
1.38343e-05	-0.02032293503916568
1.38345e-05	-0.018878776372042456
1.38348e-05	-0.016774134301053
1.38350e-05	-0.011755446955298813
1.38353e-05	-0.0056802497323452
1.38355e-05	-0.005594793175444821
1.38358e-05	-0.0068632058009565336
1.38360e-05	-0.009994650629732458
1.38363e-05	-0.014771663709688335
1.38365e-05	-0.014684120297787043
1.38368e-05	-0.012481445168937884
1.38370e-05	-0.010017636824169538
1.38373e-05	-0.006055310261303585
1.38375e-05	-0.004665753387169284
1.38378e-05	-0.005063805978119698
1.38380e-05	-0.006290303138586541
1.38383e-05	-0.008800831340625006
1.38385e-05	-0.010775215240739345
1.38388e-05	-0.01070692615036971
1.38390e-05	-0.009243007209686339
1.38393e-05	-0.007166167168099715
1.38395e-05	-0.005535161765645157
1.38398e-05	-0.005242700031387144
1.38400e-05	-0.006064921766511547
1.38403e-05	-0.007646691990377527
1.38405e-05	-0.00889159606694342
1.38408e-05	-0.00885614030926517
1.38410e-05	-0.007945836507905361
1.38413e-05	-0.00665112436813605
1.38415e-05	-0.0056352941282676585
1.38418e-05	-0.005457561380438834
1.38420e-05	-0.005977695841812773
1.38423e-05	-0.006973246446494355
1.38425e-05	-0.007757460653905243
1.38428e-05	-0.007739428495902525
1.38430e-05	-0.007173265622204396
1.38433e-05	-0.006366256821420044
1.38435e-05	-0.005733947772540999
1.38438e-05	-0.0056267179161290865
1.38440e-05	-0.005956829330937949
1.38443e-05	-0.006584986354437174
1.38445e-05	-0.0070810105329784075
1.38448e-05	-0.007074774059747421
1.38450e-05	-0.006725480031476628
1.38453e-05	-0.006225619267915515
1.38455e-05	-0.005835474972172487
1.38458e-05	-0.005774487347278876
1.38460e-05	-0.0059876518237053965
1.38463e-05	-0.006387674314192368
1.38465e-05	-0.006705066637804724
1.38468e-05	-0.006707979118686977
1.38470e-05	-0.006496140124401938
1.38473e-05	-0.006190117957335564
1.38475e-05	-0.005952932970652512
1.38478e-05	-0.005922007407235092
1.38480e-05	-0.006062847126167077
1.38483e-05	-0.006320734784549773
1.38485e-05	-0.0065268369874720246
1.38488e-05	-0.0065359117659227195
1.38490e-05	-0.006410419863417839
1.38493e-05	-0.006225870682453629
1.38495e-05	-0.006084356741646768
1.38498e-05	-0.006071926946549602
1.38500e-05	-0.006166939105778645
1.38503e-05	-0.006335086037602762
1.38505e-05	-0.0064705844173999025
1.38508e-05	-0.006482437461977898
1.38510e-05	-0.006409755560341759
1.38513e-05	-0.006299818341940012
1.38515e-05	-0.006216552450943623
1.38518e-05	-0.006213828827577966
1.38520e-05	-0.006282596422663806
1.38523e-05	-0.0063944703827866515
1.38525e-05	-0.006476536097046623
1.38528e-05	-0.006487472624640383
1.38530e-05	-0.006443174746024038
1.38533e-05	-0.006376019403474725
1.38535e-05	-0.0063286780521122805
1.38538e-05	-0.0063283780531934244
1.38540e-05	-0.006371808069292335
1.38543e-05	-0.006441390671301277
1.38545e-05	-0.006491753149468347
1.38548e-05	-0.0064964089026385355
1.38550e-05	-0.006465505765674895
1.38553e-05	-0.006419600643141299
1.38555e-05	-0.006385688120641469
1.38558e-05	-0.006380366714005617
1.38560e-05	-0.006401722613289314
1.38563e-05	-0.006438955958499992
1.38565e-05	-0.006463851693245609
1.38568e-05	-0.006459504213956677
1.38570e-05	-0.006432419155432442
1.38573e-05	-0.0063956219020175785
1.38575e-05	-0.006366166676551855
1.38578e-05	-0.006354281555355663
1.38580e-05	-0.00635888922035661
1.38583e-05	-0.006373309586271362
1.38585e-05	-0.00637995387583543
1.38588e-05	-0.006368205566983317
1.38590e-05	-0.006342246308677415
1.38593e-05	-0.0063102586378682764
1.38595e-05	-0.006282948690575524
1.38598e-05	-0.006266841124524659
1.38600e-05	-0.006261343059892381
1.38603e-05	-0.006262229911814062
1.38605e-05	-0.0062584475601514785
1.38608e-05	-0.006243606570779527
1.38610e-05	-0.006220391443902621
1.38613e-05	-0.006193825234631161
1.38615e-05	-0.006170516354506809
1.38618e-05	-0.006154956882834713
1.38620e-05	-0.006145993029445903
1.38623e-05	-0.006140410837154074
1.38625e-05	-0.006134828644862245
1.38628e-05	-0.006125347070089962
1.38630e-05	-0.006110079089422925
1.38633e-05	-0.0060948279061614164
1.38635e-05	-0.006079576722900011
1.38638e-05	-0.006068486200032099
1.38640e-05	-0.006066270533658924
1.38643e-05	-0.006068052464185013
1.38645e-05	-0.006069834394711115
1.38648e-05	-0.00607034607516338
1.38650e-05	-0.006069981207751762
1.38653e-05	-0.006071121146583094
1.38655e-05	-0.006072261085414425
1.38658e-05	-0.006076892885585778
1.38660e-05	-0.006089118597575639
1.38663e-05	-0.006104915846306732
1.38665e-05	-0.006120713095037717
1.38668e-05	-0.006136312918532513
1.38670e-05	-0.006152684727085074
1.38673e-05	-0.006170640781543968
1.38675e-05	-0.006188596836002983
1.38678e-05	-0.006209052070500139
1.38680e-05	-0.006234871835793562
1.38683e-05	-0.006263142908648161
1.38685e-05	-0.006291413981502759
1.38688e-05	-0.006319627911517076
1.38690e-05	-0.00634775688006864
1.38693e-05	-0.006377279278809196
1.38695e-05	-0.006408873465830451
1.38698e-05	-0.0064404676528514926
1.38700e-05	-0.006472061839872748
1.38703e-05	-0.006504279854438707
1.38705e-05	-0.006537425392038404
1.38708e-05	-0.006570570929638325
1.38710e-05	-0.006603716467238246
1.38713e-05	-0.0066358140532084015
1.38715e-05	-0.006666353517413905
1.38718e-05	-0.0066968929816194084
1.38720e-05	-0.0067274324458247055
1.38723e-05	-0.006757971910030209
1.38725e-05	-0.006788511374235712
1.38728e-05	-0.0068155374432074855
1.38730e-05	-0.006837339704679234
1.38733e-05	-0.006859141966150982
1.38735e-05	-0.006880944227622583
1.38738e-05	-0.006902746489094331
1.38740e-05	-0.00692454875056608
1.38743e-05	-0.006940153445013375
1.38745e-05	-0.006946543435462338
1.38748e-05	-0.006952933425911302
1.38750e-05	-0.006959323416360221
1.38753e-05	-0.0069657134068091845
1.38755e-05	-0.006972103397258149
1.38758e-05	-0.006978493387707068
1.38760e-05	-0.0069848833781560316
1.38763e-05	-0.006975518113107832
1.38765e-05	-0.006964443383844114
1.38768e-05	-0.006953368654580322
1.38770e-05	-0.0069422939253165296
1.38773e-05	-0.006931219196052737
1.38775e-05	-0.006920144466789019
1.38778e-05	-0.006909069737525227
1.38780e-05	-0.006893010068819294
1.38783e-05	-0.0068695386623734
1.38785e-05	-0.006846067255927346
1.38788e-05	-0.0068225958494812925
1.38790e-05	-0.0067991244430353984
1.38793e-05	-0.006775653036589345
1.38795e-05	-0.006752181630143291
1.38798e-05	-0.006723618055591503
1.38800e-05	-0.0066945019746609035
1.38803e-05	-0.0066653858937303035
1.38805e-05	-0.0066362698127999005
1.38808e-05	-0.006607153731869301
1.38810e-05	-0.0065780376509387015
1.38813e-05	-0.006548954646261427
1.38815e-05	-0.006519920820218219
1.38818e-05	-0.00649088699417501
1.38820e-05	-0.006462860142945796
1.38823e-05	-0.006436330488085299
1.38825e-05	-0.006409800833224803
1.38828e-05	-0.006386961188977884
1.38830e-05	-0.006369607948577331
1.38833e-05	-0.006352254708176778
1.38835e-05	-0.006334901467776343
1.38838e-05	-0.00631754822737579
1.38840e-05	-0.006300194986975238
1.38843e-05	-0.006282841746574803
1.38845e-05	-0.00626548850617425
1.38848e-05	-0.006248135265773697
1.38850e-05	-0.0062307820253732615
1.38853e-05	-0.006218334093658701
1.38855e-05	-0.006213179502604973
1.38858e-05	-0.006208024911551245
1.38860e-05	-0.006202870320497553
1.38863e-05	-0.006197715729443825
1.38865e-05	-0.006192561138390097
1.38868e-05	-0.006187406547336404
1.38870e-05	-0.006182251956282677
1.38873e-05	-0.006177097365228949
1.38875e-05	-0.006171942774175256
1.38878e-05	-0.0061700732629031635
1.38880e-05	-0.006173088093775582
1.38883e-05	-0.00617610292464798
1.38885e-05	-0.0061791177555203984
1.38888e-05	-0.006182132586392817
1.38890e-05	-0.006185147417265215
1.38893e-05	-0.006188162248137633
1.38895e-05	-0.006191177079010052
1.38898e-05	-0.006194191909882451
1.38900e-05	-0.006197206740754869
1.38903e-05	-0.00620136929072331
1.38905e-05	-0.006207238299323986
1.38908e-05	-0.006213107307924702
1.38910e-05	-0.006218976316525418
1.38913e-05	-0.006224845325126094
1.38915e-05	-0.006230714333726809
1.38918e-05	-0.006236583342327525
1.38920e-05	-0.006242452350928201
1.38923e-05	-0.006248321359528917
1.38925e-05	-0.006254190368129633
1.38928e-05	-0.006259622968963506
1.38930e-05	-0.0062644067073680185
1.38933e-05	-0.006269190445772531
1.38935e-05	-0.006272038667857378
1.38938e-05	-0.0062720091138876765
1.38940e-05	-0.006271979559917975
1.38943e-05	-0.006271950005948274
1.38945e-05	-0.006271920451978573
1.38948e-05	-0.006271890898008872
1.38950e-05	-0.0062718613440391705
1.38953e-05	-0.006271831790069469
1.38955e-05	-0.006263047841426165
1.38958e-05	-0.006253314030405305
1.38960e-05	-0.006243580219384511
1.38963e-05	-0.006233846408363651
