Time(s)	Current(A)
2.50000e-06	0.0039991333318220405
2.50025e-06	0.003985919225652006
2.50050e-06	0.003972705119481995
2.50075e-06	0.00395949101331196
2.50100e-06	0.003946276907141926
2.50125e-06	0.003933062800971914
2.50150e-06	0.00391984869480188
2.50175e-06	0.0039066345886318455
2.50200e-06	0.0038934204824618117
2.50225e-06	0.0038831092681074794
2.50250e-06	0.003880418014517583
2.50275e-06	0.003877726760927686
2.50300e-06	0.003875035507337794
2.50325e-06	0.003872344253747897
2.50350e-06	0.0038696530001580006
2.50375e-06	0.003866961746568108
2.50400e-06	0.0038642704929782116
2.50425e-06	0.0038615792393883147
2.50450e-06	0.003858887985798418
2.50475e-06	0.0038561967322085257
2.50500e-06	0.003853505478618629
2.50525e-06	0.0038508142250287323
2.50550e-06	0.003851653195676526
2.50575e-06	0.0038617588465485186
2.50600e-06	0.0038718644974205115
2.50625e-06	0.0038819701482925044
2.50650e-06	0.00389207579916448
2.50675e-06	0.0039021814500364727
2.50700e-06	0.003912287100908466
2.50725e-06	0.003922392751780441
2.50750e-06	0.003932498402652434
2.50775e-06	0.003942604053524427
2.50800e-06	0.003952709704396403
2.50825e-06	0.003962815355268395
2.50850e-06	0.0039729210061403885
2.50875e-06	0.003985696608405757
2.50900e-06	0.003999243514817381
2.50925e-06	0.004012790421229028
2.50950e-06	0.004026337327640675
2.50975e-06	0.004039884234052299
2.51000e-06	0.004053431140463946
2.51025e-06	0.0040669780468755926
2.51050e-06	0.004080524953287239
2.51075e-06	0.004094071859698863
2.51100e-06	0.0041076187661105105
2.51125e-06	0.004121165672522157
2.51150e-06	0.004134712578933781
2.51175e-06	0.004145775782660219
2.51200e-06	0.004150319378280323
2.51225e-06	0.00415486297390042
2.51250e-06	0.0041594065695205245
2.51275e-06	0.004163950165140629
2.51300e-06	0.004168493760760734
2.51325e-06	0.00417303735638083
2.51350e-06	0.004177580952000934
2.51375e-06	0.0041821245476210385
2.51400e-06	0.004186668143241135
2.51425e-06	0.00419121173886124
2.51450e-06	0.004195755334481344
2.51475e-06	0.004200298930101449
2.51500e-06	0.004204842525721546
2.51525e-06	0.00420938612134165
2.51550e-06	0.004213929716961754
2.51575e-06	0.0042184733125818505
2.51600e-06	0.004223016908201955
2.51625e-06	0.00422756050382206
2.51650e-06	0.004226191375028001
2.51675e-06	0.004223114159387069
2.51700e-06	0.004220036943746137
2.51725e-06	0.004216959728105204
2.51750e-06	0.004213882512464277
2.51775e-06	0.004210805296823345
2.51800e-06	0.004207728081182412
2.51825e-06	0.004204650865541486
2.51850e-06	0.004201573649900554
2.51875e-06	0.004198496434259622
2.51900e-06	0.004195419218618689
2.51925e-06	0.004192342002977762
2.51950e-06	0.00418926478733683
2.51975e-06	0.004186187571695897
2.52000e-06	0.0041831103560549705
2.52025e-06	0.004180033140414039
2.52050e-06	0.004176955924773107
2.52075e-06	0.004173878709132179
2.52100e-06	0.004171660542874143
2.52125e-06	0.004171697342701281
2.52150e-06	0.004171734142528418
2.52175e-06	0.0041717709423555556
2.52200e-06	0.0041718077421826925
2.52225e-06	0.00417184454200983
2.52250e-06	0.004171881341836968
2.52275e-06	0.004171918141664105
2.52300e-06	0.004171954941491243
2.52325e-06	0.004171991741318381
2.52350e-06	0.004172028541145518
2.52375e-06	0.0041720653409726555
2.52400e-06	0.004172102140799793
2.52425e-06	0.00417213894062693
2.52450e-06	0.004172175740454068
2.52475e-06	0.004172212540281205
2.52500e-06	0.004172249340108343
2.52525e-06	0.004172286139935481
2.52550e-06	0.0041723229397626176
2.52575e-06	0.004179539753972169
2.52600e-06	0.00418883075383092
2.52625e-06	0.004198121753689687
2.52650e-06	0.004207412753548454
2.52675e-06	0.004216703753407206
2.52700e-06	0.004225994753265973
2.52725e-06	0.004235285753124741
2.52750e-06	0.004244576752983508
2.52775e-06	0.00425386775284226
2.52800e-06	0.004263158752701027
2.52825e-06	0.004272449752559794
2.52850e-06	0.004281740752418546
2.52875e-06	0.004291031752277312
2.52900e-06	0.00430032275213608
2.52925e-06	0.004309613751994831
2.52950e-06	0.004318904751853599
2.52975e-06	0.004328195751712366
2.53000e-06	0.004337486751571133
2.53025e-06	0.004346486742659827
2.53050e-06	0.004354722848784444
2.53075e-06	0.004362958954909061
2.53100e-06	0.004371195061033664
2.53125e-06	0.004379431167158281
2.53150e-06	0.004387667273282898
2.53175e-06	0.004395903379407515
2.53200e-06	0.004404139485532118
2.53225e-06	0.0044123755916567345
2.53250e-06	0.0044206116977813514
2.53275e-06	0.0044288478039059545
2.53300e-06	0.004437083910030571
2.53325e-06	0.004445320016155188
2.53350e-06	0.0044535561222797905
2.53375e-06	0.004461792228404407
2.53400e-06	0.004470028334529024
2.53425e-06	0.004479376749273437
2.53450e-06	0.00448904649130967
2.53475e-06	0.00449871623334592
2.53500e-06	0.004508385975382169
2.53525e-06	0.004518055717418403
2.53550e-06	0.004527725459454653
2.53575e-06	0.004537395201490903
2.53600e-06	0.004547064943527152
2.53625e-06	0.004556734685563385
2.53650e-06	0.004566404427599636
2.53675e-06	0.0045760741696358855
2.53700e-06	0.004585743911672119
2.53725e-06	0.004595413653708368
2.53750e-06	0.004605083395744619
2.53775e-06	0.004614753137780852
2.53800e-06	0.004624571649377304
2.53825e-06	0.004634780674394156
2.53850e-06	0.004644989699411009
2.53875e-06	0.004655198724427843
2.53900e-06	0.004665407749444695
2.53925e-06	0.004675616774461548
2.53950e-06	0.004685825799478383
2.53975e-06	0.004696034824495235
2.54000e-06	0.004706243849512087
2.54025e-06	0.00471645287452894
2.54050e-06	0.004726661899545775
2.54075e-06	0.004736870924562627
2.54100e-06	0.00474707994957948
2.54125e-06	0.004757288974596314
2.54150e-06	0.004767497999613166
2.54175e-06	0.004777707024630019
2.54200e-06	0.004787916049646854
2.54225e-06	0.004798125074663706
2.54250e-06	0.004807004426696539
2.54275e-06	0.004815499658520801
2.54300e-06	0.004823994890345049
2.54325e-06	0.004832490122169311
2.54350e-06	0.004840985353993574
2.54375e-06	0.004849480585817822
2.54400e-06	0.004857975817642084
2.54425e-06	0.004866471049466346
2.54450e-06	0.004874966281290594
2.54475e-06	0.004883461513114856
2.54500e-06	0.0048919567449391185
2.54525e-06	0.00490045197676338
2.54550e-06	0.004908947208587628
2.54575e-06	0.00491744244041189
2.54600e-06	0.004925937672236153
2.54625e-06	0.0049344329040604
2.54650e-06	0.004942928135884663
2.54675e-06	0.004952252645277674
2.54700e-06	0.004963753971080043
2.54725e-06	0.004975255296882393
2.54750e-06	0.004986756622684763
2.54775e-06	0.0049982579484871325
2.54800e-06	0.0050097592742894825
2.54825e-06	0.0050212606000918526
2.54850e-06	0.005032761925894222
2.54875e-06	0.005044263251696572
2.54900e-06	0.005055764577498942
2.54925e-06	0.005067265903301311
2.54950e-06	0.005078277446630345
2.54975e-06	0.005088003332942726
2.55000e-06	0.005097729219255124
2.55025e-06	0.005107455105567522
2.55050e-06	0.0051171809918799036
2.55075e-06	0.005126906878192302
2.55100e-06	0.0051366327645047
2.55125e-06	0.005146358650817098
2.55150e-06	0.00515608453712948
2.55175e-06	0.005165810423441878
2.55200e-06	0.005175536309754276
2.55225e-06	0.005184385177135705
2.55250e-06	0.005190415532586731
2.55275e-06	0.005195090422665335
2.55300e-06	0.005199765312743932
2.55325e-06	0.005204440202822537
2.55350e-06	0.005209115092901141
2.55375e-06	0.005213789982979746
2.55400e-06	0.0052184648730583425
2.55425e-06	0.005223139763136948
2.55450e-06	0.005227814653215552
2.55475e-06	0.005232489543294148
2.55500e-06	0.005237164433372753
2.55525e-06	0.005241839323451358
2.55550e-06	0.005246514213529963
2.55575e-06	0.005251189103608559
2.55600e-06	0.005255863993687164
2.55625e-06	0.005260538883765768
2.55650e-06	0.005265213773844365
2.55675e-06	0.00526988866392297
2.55700e-06	0.005274563554001574
2.55725e-06	0.005279238444080171
2.55750e-06	0.005283304357269824
2.55775e-06	0.005285771733449817
2.55800e-06	0.005288239109629811
2.55825e-06	0.0052907064858097996
2.55850e-06	0.005293173861989793
2.55875e-06	0.005295641238169786
2.55900e-06	0.005298108614349775
2.55925e-06	0.0053005759905297685
2.55950e-06	0.005303043366709762
2.55975e-06	0.005305510742889755
2.56000e-06	0.005307978119069745
2.56025e-06	0.005310445495249738
2.56050e-06	0.005312912871429732
2.56075e-06	0.005315380247609721
2.56100e-06	0.005317847623789714
2.56125e-06	0.005320314999969707
2.56150e-06	0.005322782376149696
2.56175e-06	0.00532524975232969
2.56200e-06	0.005327717128509683
2.56225e-06	0.005330184504689676
2.56250e-06	0.005328538070234067
2.56275e-06	0.0053160930674398
2.56300e-06	0.005303648064645534
2.56325e-06	0.005291203061851288
2.56350e-06	0.005278758059057022
2.56375e-06	0.005266313056262755
2.56400e-06	0.005253868053468488
2.56425e-06	0.005241423050674243
2.56450e-06	0.0052289780478799765
2.56475e-06	0.00521653304508571
2.56500e-06	0.0052040880422914645
2.56525e-06	0.005191643039497197
2.56550e-06	0.005179198036702931
2.56575e-06	0.005149407042503833
2.56600e-06	0.005114605082512371
2.56625e-06	0.005079803122520908
2.56650e-06	0.005045001162529446
2.56675e-06	0.0050101992025380435
2.56700e-06	0.004975397242546581
2.56725e-06	0.004940595282555119
2.56750e-06	0.004905793322563716
2.56775e-06	0.004870991362572253
2.56800e-06	0.004836189402580791
2.56825e-06	0.004801387442589329
2.56850e-06	0.004766585482597926
2.56875e-06	0.0047302048058986195
2.56900e-06	0.004689680068675417
2.56925e-06	0.0046491553314522835
2.56950e-06	0.004608630594229082
2.56975e-06	0.00456810585700588
2.57000e-06	0.0045275811197827455
2.57025e-06	0.004487056382559544
2.57050e-06	0.004446531645336342
2.57075e-06	0.004406006908113139
2.57100e-06	0.004365482170890006
2.57125e-06	0.004336044755169315
2.57150e-06	0.004309810280547996
2.57175e-06	0.0042835758059267225
2.57200e-06	0.004257341331305404
2.57225e-06	0.004231106856684085
2.57250e-06	0.004204872382062766
2.57275e-06	0.004178637907441492
2.57300e-06	0.004152403432820174
2.57325e-06	0.004126168958198855
2.57350e-06	0.0041068840012270045
2.57375e-06	0.004105841216273345
2.57400e-06	0.0041047984313196855
2.57425e-06	0.004103755646366028
2.57450e-06	0.004102712861412368
2.57475e-06	0.004101670076458708
2.57500e-06	0.004100627291505049
2.57525e-06	0.004099584506551391
2.57550e-06	0.004098541721597732
2.57575e-06	0.004097498936644072
2.57600e-06	0.004096456151690415
2.57625e-06	0.004101133241251345
2.57650e-06	0.004120824744773422
2.57675e-06	0.004140516248295499
2.57700e-06	0.004160207751817542
2.57725e-06	0.004179899255339619
2.57750e-06	0.004199590758861696
2.57775e-06	0.00421928226238374
2.57800e-06	0.004238973765905817
2.57825e-06	0.004258665269427894
2.57850e-06	0.004278356772949938
2.57875e-06	0.004298048276472015
2.57900e-06	0.004318951540990336
2.57925e-06	0.004343035623754466
2.57950e-06	0.0043671197065185555
2.57975e-06	0.004391203789282685
2.58000e-06	0.0044152878720468145
2.58025e-06	0.004439371954810904
2.58050e-06	0.0044634560375750336
2.58075e-06	0.004487540120339163
2.58100e-06	0.004511624203103293
2.58125e-06	0.004535708285867382
2.58150e-06	0.004559792368631512
2.58175e-06	0.004583876451395641
2.58200e-06	0.004597230645553524
2.58225e-06	0.004607485154976615
2.58250e-06	0.0046177396643997054
2.58275e-06	0.004627994173822779
2.58300e-06	0.00463824868324587
2.58325e-06	0.004648503192668961
2.58350e-06	0.0046587577020920515
2.58375e-06	0.004669012211515125
2.58400e-06	0.004679266720938216
2.58425e-06	0.004689521230361307
2.58450e-06	0.00469977573978438
2.58475e-06	0.004705177544904791
2.58500e-06	0.004697841218961321
2.58525e-06	0.00469050489301785
2.58550e-06	0.0046831685670743915
2.58575e-06	0.004675832241130921
2.58600e-06	0.004668495915187451
2.58625e-06	0.004661159589243993
2.58650e-06	0.0046538232633005225
2.58675e-06	0.004646486937357051
2.58700e-06	0.004639150611413594
2.58725e-06	0.004631814285470123
2.58750e-06	0.004624477959526653
2.58775e-06	0.004617141633583182
2.58800e-06	0.004603156059106875
2.58825e-06	0.004587249628325985
2.58850e-06	0.004571343197545093
2.58875e-06	0.00455543676676423
2.58900e-06	0.004539530335983339
2.58925e-06	0.004523623905202449
2.58950e-06	0.004507717474421557
2.58975e-06	0.0044918110436406936
2.59000e-06	0.004475904612859803
2.59025e-06	0.004459998182078912
2.59050e-06	0.004444091751298048
2.59075e-06	0.004428185320517157
2.59100e-06	0.00441312088641744
2.59125e-06	0.004400266655827298
2.59150e-06	0.004387412425237133
2.59175e-06	0.004374558194646968
2.59200e-06	0.004361703964056804
2.59225e-06	0.004348849733466661
2.59250e-06	0.004335995502876496
2.59275e-06	0.0043231412722863315
2.59300e-06	0.0043102870416961885
2.59325e-06	0.004297432811106024
2.59350e-06	0.004284578580515859
2.59375e-06	0.0042717243499256945
2.59400e-06	0.0042588701193355515
2.59425e-06	0.004246015888745387
2.59450e-06	0.004233161658155222
2.59475e-06	0.004220307427565079
2.59500e-06	0.004206406714651432
2.59525e-06	0.004189759032591876
2.59550e-06	0.004173111350532348
2.59575e-06	0.004156463668472792
2.59600e-06	0.004139815986413236
2.59625e-06	0.004123168304353679
2.59650e-06	0.004106520622294151
2.59675e-06	0.004089872940234595
2.59700e-06	0.004073225258175038
2.59725e-06	0.004056577576115511
2.59750e-06	0.0040399298940559545
2.59775e-06	0.004023282211996398
2.59800e-06	0.004006634529936842
2.59825e-06	0.0039899868478773136
2.59850e-06	0.003973339165817757
2.59875e-06	0.003956691483758201
2.59900e-06	0.0039407291016465285
2.59925e-06	0.003926565601150206
2.59950e-06	0.0039124021006538825
2.59975e-06	0.003898238600157584
2.60000e-06	0.0038840750996612613
2.60025e-06	0.0038699115991649383
2.60050e-06	0.003855748098668616
2.60075e-06	0.0038415845981723167
2.60100e-06	0.003827421097675994
2.60125e-06	0.003813257597179671
2.60150e-06	0.0037990940966833725
2.60175e-06	0.0037849305961870495
2.60200e-06	0.003770767095690727
2.60225e-06	0.003756603595194404
2.60250e-06	0.0037424400946981053
2.60275e-06	0.0037282765942017824
2.60300e-06	0.00371411309370546
2.60325e-06	0.0036999495932091607
2.60350e-06	0.003697529448800239
2.60375e-06	0.0036985017628727457
2.60400e-06	0.0036994740769452513
2.60425e-06	0.003700446391017758
2.60450e-06	0.003701418705090265
2.60475e-06	0.003702391019162772
2.60500e-06	0.0037033633332352774
2.60525e-06	0.003704335647307784
2.60550e-06	0.003705307961380291
2.60575e-06	0.003706280275452796
2.60600e-06	0.003707252589525303
2.60625e-06	0.0037082249035978103
2.60650e-06	0.003709197217670317
2.60675e-06	0.0037101695317428222
2.60700e-06	0.003711141845815329
2.60725e-06	0.003712114159887836
2.60750e-06	0.0037130864739603415
2.60775e-06	0.003716339668515493
2.60800e-06	0.0037255800720003337
2.60825e-06	0.003734820475485159
2.60850e-06	0.0037440608789699997
2.60875e-06	0.0037533012824548405
2.60900e-06	0.0037625416859396812
2.60925e-06	0.0037717820894245064
2.60950e-06	0.0037810224929093472
2.60975e-06	0.0037902628963941884
2.61000e-06	0.0037995032998790136
2.61025e-06	0.0038087437033638544
2.61050e-06	0.0038179841068486952
2.61075e-06	0.003827224510333536
2.61100e-06	0.003835224534899056
2.61125e-06	0.0038399686204539495
2.61150e-06	0.0038447127060088435
2.61175e-06	0.0038494567915637293
2.61200e-06	0.0038542008771186233
2.61225e-06	0.003858944962673517
2.61250e-06	0.0038636890482284026
2.61275e-06	0.0038684331337832966
2.61300e-06	0.00387317721933819
2.61325e-06	0.003877921304893084
2.61350e-06	0.00388266539044797
2.61375e-06	0.003887409476002864
2.61400e-06	0.0038921535615577575
2.61425e-06	0.003893979025185714
2.61450e-06	0.0038881432372061724
2.61475e-06	0.0038823074492266314
2.61500e-06	0.00387647166124709
2.61525e-06	0.0038706358732675584
2.61550e-06	0.003864800085288017
2.61575e-06	0.0038589642973084755
2.61600e-06	0.003853128509328944
2.61625e-06	0.003847292721349403
2.61650e-06	0.0038414569333698615
2.61675e-06	0.00383562114539033
2.61700e-06	0.0038297853574107885
2.61725e-06	0.003823949569431247
2.61750e-06	0.003818113781451706
2.61775e-06	0.0038079403796351255
2.61800e-06	0.00379651391398031
2.61825e-06	0.0037850874483254947
2.61850e-06	0.0037736609826706986
2.61875e-06	0.0037622345170158834
2.61900e-06	0.0037508080513610677
2.61925e-06	0.0037393815857062716
2.61950e-06	0.0037279551200514564
2.61975e-06	0.003716528654396641
2.62000e-06	0.0037051021887418256
2.62025e-06	0.0036936757230870295
2.62050e-06	0.0036822492574322143
2.62075e-06	0.0036708227917773987
2.62100e-06	0.003659926445537495
2.62125e-06	0.0036504216389767205
2.62150e-06	0.0036409168324159458
2.62175e-06	0.003631412025855171
2.62200e-06	0.0036219072192944127
2.62225e-06	0.003612402412733638
2.62250e-06	0.003602897606172863
2.62275e-06	0.0035933927996121048
2.62300e-06	0.00358388799305133
2.62325e-06	0.003574383186490555
2.62350e-06	0.003564878379929797
2.62375e-06	0.003555373573369022
2.62400e-06	0.0035458687668082477
2.62425e-06	0.003536363960247473
2.62450e-06	0.003526859153686714
2.62475e-06	0.00351735434712594
2.62500e-06	0.003507849540565165
2.62525e-06	0.0034983447340044063
2.62550e-06	0.0034878679464959883
2.62575e-06	0.003474839752609907
2.62600e-06	0.003461811558723826
2.62625e-06	0.0034487833648377663
2.62650e-06	0.003435755170951685
2.62675e-06	0.003422726977065604
2.62700e-06	0.0034096987831795443
2.62725e-06	0.003396670589293463
2.62750e-06	0.0033836423954073814
2.62775e-06	0.0033706142015213223
2.62800e-06	0.003357586007635241
2.62825e-06	0.0033445578137491594
2.62850e-06	0.003331529619863078
2.62875e-06	0.003318501425977019
2.62900e-06	0.0033054732320909374
2.62925e-06	0.003292445038204856
2.62950e-06	0.0032794168443187966
2.62975e-06	0.0032663886504327153
2.63000e-06	0.003254430715497099
2.63025e-06	0.0032452821622872296
2.63050e-06	0.0032361336090773758
2.63075e-06	0.0032269850558675063
2.63100e-06	0.003217836502657637
2.63125e-06	0.0032086879494477825
2.63150e-06	0.003199539396237913
2.63175e-06	0.0031903908430280436
2.63200e-06	0.0031812422898181898
2.63225e-06	0.0031720937366083203
2.63250e-06	0.003162945183398451
2.63275e-06	0.0031537966301885814
2.63300e-06	0.003144648076978727
2.63325e-06	0.0031354995237688576
2.63350e-06	0.003126350970558988
2.63375e-06	0.0031172024173491343
2.63400e-06	0.003108053864139265
2.63425e-06	0.0030989053109293954
2.63450e-06	0.003089756757719526
2.63475e-06	0.003082278842101065
2.63500e-06	0.0030791862752038547
2.63525e-06	0.0030760937083066445
2.63550e-06	0.0030730011414094394
2.63575e-06	0.003069908574512229
2.63600e-06	0.003066816007615019
2.63625e-06	0.0030637234407178138
2.63650e-06	0.0030606308738206035
2.63675e-06	0.0030575383069233932
2.63700e-06	0.003054445740026183
2.63725e-06	0.003051353173128978
2.63750e-06	0.003048260606231767
2.63775e-06	0.003045168039334557
2.63800e-06	0.003042075472437352
2.63825e-06	0.0030389829055401415
2.63850e-06	0.0030358903386429313
2.63875e-06	0.003032797771745721
2.63900e-06	0.003029705204848516
2.63925e-06	0.0030266126379513056
2.63950e-06	0.0030239879523475716
2.63975e-06	0.003022591434146938
2.64000e-06	0.0030211949159463015
2.64025e-06	0.003019798397745665
2.64050e-06	0.003018401879545031
2.64075e-06	0.0030170053613443946
2.64100e-06	0.0030156088431437583
2.64125e-06	0.003014212324943122
2.64150e-06	0.003012815806742488
2.64175e-06	0.003011419288541852
2.64200e-06	0.0030100227703412155
2.64225e-06	0.0030101588835660135
2.64250e-06	0.003014318085518559
2.64275e-06	0.0030184772874711045
2.64300e-06	0.0030226364894236496
2.64325e-06	0.003026795691376188
2.64350e-06	0.0030309548933287337
2.64375e-06	0.003035114095281279
2.64400e-06	0.0030392732972338173
2.64425e-06	0.003043432499186363
2.64450e-06	0.0030475917011389083
2.64475e-06	0.0030517509030914465
2.64500e-06	0.0030591081761123557
2.64525e-06	0.0030748602422011138
2.64550e-06	0.003090612308289872
2.64575e-06	0.0031063643743786036
2.64600e-06	0.0031221164404673617
2.64625e-06	0.00313786850655612
2.64650e-06	0.0031536205726448515
2.64675e-06	0.0031693726387336096
2.64700e-06	0.003185124704822368
2.64725e-06	0.0032008767709111262
2.64750e-06	0.0032166288369998575
2.64775e-06	0.003232380903088616
2.64800e-06	0.0032523017119853964
2.64825e-06	0.0032734268007146503
2.64850e-06	0.00329455188944394
2.64875e-06	0.00331567697817323
2.64900e-06	0.0033368020669024842
2.64925e-06	0.003357927155631774
2.64950e-06	0.003379052244361064
2.64975e-06	0.003400177333090354
2.65000e-06	0.0034213024218196077
