Time(s)	Current(A)
7.30000e-06	0.0008414598897923284
7.30025e-06	0.0007991159901744935
7.30050e-06	0.0007572345692143226
7.30075e-06	0.0007153531482542937
7.30100e-06	0.0006755245041683006
7.30125e-06	0.0006364942593613869
7.30150e-06	0.0005999680018393164
7.30175e-06	0.0005644156356681638
7.30200e-06	0.0005321792050265738
7.30225e-06	0.0005012324618176588
7.30250e-06	0.00047318104361611347
7.30275e-06	0.00044818431142146914
7.30300e-06	0.0004258210059435396
7.30325e-06	0.0004061044099037854
7.30350e-06	0.00038910302819000916
7.30375e-06	0.0003748953666371365
7.30400e-06	0.0003635598845175726
7.30425e-06	0.0003551723554909121
7.30450e-06	0.0003497502298378657
7.30475e-06	0.0003471976310020896
7.30500e-06	0.0003473783893122
7.30525e-06	0.0003502022323704924
7.30550e-06	0.0003556134653780221
7.30575e-06	0.0003635625699148919
7.30600e-06	0.00037400011603193356
7.30625e-06	0.00038687495438911217
7.30650e-06	0.0004020993777413601
7.30675e-06	0.0004202185567882424
7.30700e-06	0.00043921081432556265
7.30725e-06	0.00046081681642932076
7.30750e-06	0.0004834393984663992
7.30775e-06	0.0005082975883947174
7.30800e-06	0.0005340252872069786
7.30825e-06	0.0005619579870372851
7.30850e-06	0.0005907482916297852
7.30875e-06	0.0006195385962222853
7.30900e-06	0.0006500365436329455
7.30925e-06	0.0006811986551872403
7.30950e-06	0.0007123607667415353
7.30975e-06	0.0007435228782959356
7.31000e-06	0.0007746849898502304
7.31025e-06	0.0008049974652166146
7.31050e-06	0.0008349794862950819
7.31075e-06	0.0008649615073735492
7.31100e-06	0.0008949435284521183
7.31125e-06	0.0009249255495305856
7.31150e-06	0.0009521976385996967
7.31175e-06	0.0009784157369552428
7.31200e-06	0.0010021531489225626
7.31225e-06	0.0010249257321017385
7.31250e-06	0.0010438420168687559
7.31275e-06	0.0010612584475059963
7.31300e-06	0.0010727141232000086
7.31325e-06	0.0010818514453949139
7.31350e-06	0.0010848155386419883
7.31375e-06	0.0010853786395536651
7.31400e-06	0.0010799823265808656
7.31425e-06	0.0010722681816953256
7.31450e-06	0.0010583319849397522
7.31475e-06	0.0010419758068460506
7.31500e-06	0.0010186785598219877
7.31525e-06	0.000992681679681744
7.31550e-06	0.0009602099161785675
7.31575e-06	0.0009252198360119594
7.31600e-06	0.0008844880544761787
7.31625e-06	0.0008415231173107991
7.31650e-06	0.0007932510656456283
7.31675e-06	0.0007429148849249794
7.31700e-06	0.0006874204472321322
7.31725e-06	0.0006299197765681198
7.31750e-06	0.0005681520034620424
7.31775e-06	0.0005047245996599903
7.31800e-06	0.0004387594725623718
7.31825e-06	0.00036989011128498106
7.31850e-06	0.0003002750730567598
7.31875e-06	0.000229051801486452
7.31900e-06	0.00015635402424741656
7.31925e-06	8.276597834540167e-05
7.31950e-06	8.715738887202772e-06
7.31975e-06	-6.535824361010315e-05
7.32000e-06	-0.0001390175538463624
7.32025e-06	-0.00021182619758730966
7.32050e-06	-0.0002833923250617997
7.32075e-06	-0.0003533882374584077
7.32100e-06	-0.0004214623840646701
7.32125e-06	-0.0004871811898906018
7.32150e-06	-0.0005500688497878282
7.32175e-06	-0.000609643055078219
7.32200e-06	-0.0006654216228072977
7.32225e-06	-0.0007169466417946094
7.32250e-06	-0.0007631459458520593
7.32275e-06	-0.0008077508256560149
7.32300e-06	-0.0008487622336195239
7.32325e-06	-0.0008883760102269628
7.32350e-06	-0.0009242654988980984
7.32375e-06	-0.000958706477095596
7.32400e-06	-0.0009886863184049484
7.32425e-06	-0.0010169310619942602
7.32450e-06	-0.00104007398483578
7.32475e-06	-0.0010612326247982544
7.32500e-06	-0.001082391264760729
7.32525e-06	-0.0010992295440864185
7.32550e-06	-0.001114387478675109
7.32575e-06	-0.0011295454132637997
7.32600e-06	-0.0011399473107360934
7.32625e-06	-0.0011484994131081437
7.32650e-06	-0.001157051515480194
7.32675e-06	-0.001161849156092749
7.32700e-06	-0.0011651865505388835
7.32725e-06	-0.0011685239449850293
7.32750e-06	-0.0011673764077295297
7.32775e-06	-0.0011644845180892665
7.32800e-06	-0.0011615926284489935
7.32825e-06	-0.0011587007388087305
7.32850e-06	-0.0011558088491684672
7.32875e-06	-0.0011529169595281942
7.32900e-06	-0.0011500250698879312
7.32925e-06	-0.0011436184926183492
7.32950e-06	-0.0011358449260263702
7.32975e-06	-0.0011280713594344178
7.33000e-06	-0.0011202977928424652
7.33025e-06	-0.0011125242262504864
7.33050e-06	-0.0011047506596585338
7.33075e-06	-0.0010969770930665812
7.33100e-06	-0.0010892238668643044
7.33125e-06	-0.0010814785517763452
7.33150e-06	-0.0010737332366883598
7.33175e-06	-0.0010659879216004006
7.33200e-06	-0.0010587154764198508
7.33225e-06	-0.0010516269474737847
7.33250e-06	-0.0010445384185277426
7.33275e-06	-0.0010374498895817006
7.33300e-06	-0.0010263707048937486
7.33325e-06	-0.0010137394096448825
7.33350e-06	-0.0009972294789725173
7.33375e-06	-0.0009792110064983878
7.33400e-06	-0.0009579134985653834
7.33425e-06	-0.0009353406549746321
7.33450e-06	-0.000909181191515273
7.33475e-06	-0.0008816267616805645
7.33500e-06	-0.0008490336386470516
7.33525e-06	-0.0008144807853252779
7.33550e-06	-0.0007753098912349553
7.33575e-06	-0.0007343428738226308
7.33600e-06	-0.0006896364187001273
7.33625e-06	-0.0006434755608084634
7.33650e-06	-0.0005938855526875477
7.33675e-06	-0.000542961823837809
7.33700e-06	-0.0004891018467323145
7.33725e-06	-0.0004323010564343615
7.33750e-06	-0.000373266099257953
7.33775e-06	-0.00031236389883857336
7.33800e-06	-0.0002499613694938131
7.33825e-06	-0.00018641862770232815
7.33850e-06	-0.00012196416912163509
7.33875e-06	-5.662078560518065e-05
7.33900e-06	9.55372516615188e-06
7.33925e-06	7.631047757442316e-05
7.33950e-06	0.00014320605388499385
7.33975e-06	0.00020960706237550334
7.34000e-06	0.0002758157155277166
7.34025e-06	0.0003404143751979449
7.34050e-06	0.000404386850088706
7.34075e-06	0.0004660498016982116
7.34100e-06	0.0005268144960517771
7.34125e-06	0.000584391032634406
7.34150e-06	0.0006407275791841704
7.34175e-06	0.0006926590409124747
7.34200e-06	0.0007428772056004509
7.34225e-06	0.0007876185070786962
7.34250e-06	0.0008302296580810437
7.34275e-06	0.0008678197382351995
7.34300e-06	0.0009034569420721337
7.34325e-06	0.0009345180132277317
7.34350e-06	0.0009637992606349296
7.34375e-06	0.0009880632508299677
7.34400e-06	0.0010103758479687748
7.34425e-06	0.0010272872259959596
7.34450e-06	0.0010420978742770868
7.34475e-06	0.001052080375591632
7.34500e-06	0.0010601850356742677
7.34525e-06	0.0010640276013307022
7.34550e-06	0.00106621248409075
7.34575e-06	0.0010641463361597615
7.34600e-06	0.00106042680841973
7.34625e-06	0.0010525031032306922
7.34650e-06	0.0010429442411554503
7.34675e-06	0.0010290856092831926
7.34700e-06	0.0010135546411982612
7.34725e-06	0.0009980236731132771
7.34750e-06	0.0009783407171178376
7.34775e-06	0.000957042902638119
7.34800e-06	0.0009357450881583283
7.34825e-06	0.0009110591305130617
7.34850e-06	0.0008850554012713839
7.34875e-06	0.0008590516720297942
7.34900e-06	0.000830898327963993
7.34925e-06	0.0008019089208334812
7.34950e-06	0.0007729195137030677
7.34975e-06	0.0007439301065726541
7.35000e-06	0.0007149406994421423
7.35025e-06	0.0006859512923117287
7.35050e-06	0.0006569618851813151
7.35075e-06	0.0006279724780508032
7.35100e-06	0.0005989830709203898
7.35125e-06	0.0005718463667976035
7.35150e-06	0.0005454302459796291
7.35175e-06	0.0005210664480321924
7.35200e-06	0.000497500872784562
7.35225e-06	0.00047664390804524903
7.35250e-06	0.00045684042003905456
7.35275e-06	0.00043703693203279303
7.35300e-06	0.0004176766988854388
7.35325e-06	0.0003984888636074493
7.35350e-06	0.0003795582272438616
7.35375e-06	0.00036072762485395913
7.35400e-06	0.0003418970224640566
7.35425e-06	0.0003232076290812528
7.35450e-06	0.0003050189574066822
7.35475e-06	0.00028683028573211165
7.35500e-06	0.0002686416140574794
7.35525e-06	0.00024952710105182466
7.35550e-06	0.00023005249481840854
7.35575e-06	0.00021057788858492644
7.35600e-06	0.0001911032823515103
7.35625e-06	0.0001712382577538899
7.35650e-06	0.00015122138531335728
7.35675e-06	0.00013120451287289248
7.35700e-06	0.00011118764043235986
7.35725e-06	9.045876267826015e-05
7.35750e-06	6.945296026876958e-05
7.35775e-06	4.8260792593234035e-05
7.35800e-06	2.700558967980846e-05
7.35825e-06	5.859192177645109e-06
7.35850e-06	-1.5130766949820656e-05
7.35875e-06	-3.607578419041293e-05
7.35900e-06	-5.70606456568379e-05
7.35925e-06	-7.798276223165605e-05
7.35950e-06	-9.887444852192577e-05
7.35975e-06	-0.00011934518116758589
7.36000e-06	-0.00013965218969394267
7.36025e-06	-0.0001591919135196581
7.36050e-06	-0.00017843321253419663
7.36075e-06	-0.00019685666474042083
7.36100e-06	-0.0002149620267003178
7.36125e-06	-0.0002321113813637285
7.36150e-06	-0.0002488889101629243
7.36175e-06	-0.00026435361572991816
7.36200e-06	-0.0002793077167914173
7.36225e-06	-0.0002926544421296293
7.36250e-06	-0.00030537600082980573
7.36275e-06	-0.00031809755953002527
7.36300e-06	-0.00033091868047612974
7.36325e-06	-0.0003440928453168216
7.36350e-06	-0.00035726701015755804
7.36375e-06	-0.00037044117499824994
7.36400e-06	-0.000384781568081437
7.36425e-06	-0.0003995755495690394
7.36450e-06	-0.00041436953105659176
7.36475e-06	-0.0004291635125441441
7.36500e-06	-0.00044395749403174653
7.36525e-06	-0.0004587514755192988
7.36550e-06	-0.00047354545700685117
7.36575e-06	-0.0004883394384944536
7.36600e-06	-0.000503133419982006
7.36625e-06	-0.0005205644399491571
7.36650e-06	-0.0005390210996945821
7.36675e-06	-0.0005574777594400071
7.36700e-06	-0.0005759344191854946
7.36725e-06	-0.0005943910789309196
7.36750e-06	-0.0006128477386763446
7.36775e-06	-0.0006313043984218322
7.36800e-06	-0.0006497610581672571
7.36825e-06	-0.0006682177179126821
7.36850e-06	-0.0006874622206935713
7.36875e-06	-0.000707013144166553
7.36900e-06	-0.0007265640676395347
7.36925e-06	-0.0007461149911125826
7.36950e-06	-0.0007656659145855642
7.36975e-06	-0.0007852168380585459
7.37000e-06	-0.0008042997009232375
7.37025e-06	-0.0008217228388740246
7.37050e-06	-0.0008391459768248708
7.37075e-06	-0.0008565691147756579
7.37100e-06	-0.0008739922527264451
7.37125e-06	-0.0008914153906772912
7.37150e-06	-0.0009088385286280784
7.37175e-06	-0.0009236245904894043
7.37200e-06	-0.0009373849979447164
7.37225e-06	-0.000951145405399982
7.37250e-06	-0.0009620922505255358
7.37275e-06	-0.0009719447993539177
7.37300e-06	-0.0009777308807086833
7.37325e-06	-0.0009819353655756153
7.37350e-06	-0.0009819288210204452
7.37375e-06	-0.0009802844545996397
7.37400e-06	-0.0009746256286420655
7.37425e-06	-0.0009674054339670127
7.37450e-06	-0.0009559763890904085
7.37475e-06	-0.0009429103699259659
7.37500e-06	-0.0009250362777680161
7.37525e-06	-0.0009052921518746766
7.37550e-06	-0.0008810718440882252
7.37575e-06	-0.0008551105870365487
7.37600e-06	-0.0008252187285315316
7.37625e-06	-0.0007937981167550136
7.37650e-06	-0.0007587475102383066
7.37675e-06	-0.0007222850672888924
7.37700e-06	-0.0006822396504734403
7.37725e-06	-0.0006408006853465682
7.37750e-06	-0.0005964090439927749
7.37775e-06	-0.0005508689999084292
7.37800e-06	-0.000503140305944147
7.37825e-06	-0.0004545603667687498
7.37850e-06	-0.00040440225282660405
7.37875e-06	-0.00035363032955652754
7.37900e-06	-0.0003016122273904437
7.37925e-06	-0.0002491094411154443
7.37950e-06	-0.00019660665484044494
7.37975e-06	-0.0001441038685652677
7.38000e-06	-9.160108229026831e-05
7.38025e-06	-3.975865077453871e-05
7.38050e-06	1.1119489932881984e-05
7.38075e-06	6.086661835525357e-05
7.38100e-06	0.00010924409510376423
7.38125e-06	0.00015594844947785773
7.38150e-06	0.00020064241423510082
7.38175e-06	0.00024298353129458897
7.38200e-06	0.00028262936498729994
7.38225e-06	0.00031923481848023677
7.38250e-06	0.0003524153930636291
7.38275e-06	0.0003817701171691394
7.38300e-06	0.00040702169457799563
7.38325e-06	0.0004280552183168481
7.38350e-06	0.00044482383972411544
7.38375e-06	0.0004572899065930548
7.38400e-06	0.0004654158633372979
7.38425e-06	0.000469162414025597
7.38450e-06	0.00046846564047686533
7.38475e-06	0.0004632513535676348
7.38500e-06	0.00045352279164912075
7.38525e-06	0.00043938492747374664
7.38550e-06	0.000420985368179036
7.38575e-06	0.0003984774699975708
7.38600e-06	0.00037201464387410713
7.38625e-06	0.00034174925654647034
7.38650e-06	0.0003078181722021026
7.38675e-06	0.000270351842376656
7.38700e-06	0.00022952921438621426
7.38725e-06	0.0001855929585179496
7.38750e-06	0.00013881243331685127
7.38775e-06	8.946059313206483e-05
7.38800e-06	3.781038037961057e-05
7.38825e-06	-1.5865933490840906e-05
7.38850e-06	-7.130576088474363e-05
7.38875e-06	-0.00012825059341698246
7.38900e-06	-0.00018669671982088386
7.38925e-06	-0.0002455707202086158
7.38950e-06	-0.00030503560542507747
7.38975e-06	-0.0003647303071533803
7.39000e-06	-0.0004244250088814809
7.39025e-06	-0.00048283736503397094
7.39050e-06	-0.0005407509705459765
7.39075e-06	-0.0005986645760577859
7.39100e-06	-0.0006538291088018326
7.39125e-06	-0.0007079244275757773
7.39150e-06	-0.000758529347449023
7.39175e-06	-0.0008077767247684513
7.39200e-06	-0.0008524024991298534
7.39225e-06	-0.0008952307647074081
7.39250e-06	-0.000932832903162106
7.39275e-06	-0.0009684024114892772
7.39300e-06	-0.0009991624009933055
7.39325e-06	-0.0010280517944273317
7.39350e-06	-0.0010519584000494844
7.39375e-06	-0.0010739270190161234
7.39400e-06	-0.001090538946212545
7.39425e-06	-0.0011050674619612246
7.39450e-06	-0.0011141954081717864
7.39475e-06	-0.0011212228772815539
7.39500e-06	-0.0011234454165036905
7.39525e-06	-0.0011237991444590617
7.39550e-06	-0.001119574036659968
7.39575e-06	-0.0011135680537915946
7.39600e-06	-0.001103083772671116
7.39625e-06	-0.0010908577191575295
7.39650e-06	-0.001073571515502171
7.39675e-06	-0.0010543172361791836
7.39700e-06	-0.0010350629568562613
7.39725e-06	-0.0010109773315810477
7.39750e-06	-0.0009850126208747357
7.39775e-06	-0.0009590479101685116
7.39800e-06	-0.0009292147477024397
7.39825e-06	-0.0008978770042325091
7.39850e-06	-0.0008665392607626847
7.39875e-06	-0.0008323864439432647
7.39900e-06	-0.0007971387431368388
7.39925e-06	-0.0007618910423305323
7.39950e-06	-0.0007266433415242258
7.39975e-06	-0.0006912596509696532
7.40000e-06	-0.0006553937459993652
7.40025e-06	-0.0006195278410289557
7.40050e-06	-0.0005836619360586677
7.40075e-06	-0.0005477960310883796
7.40100e-06	-0.0005136778214277788
7.40125e-06	-0.00048023935377431055
7.40150e-06	-0.00044894647544115556
7.40175e-06	-0.00041848809450720134
7.40200e-06	-0.0003900755406908897
7.40225e-06	-0.00036463825991930426
7.40250e-06	-0.00034004869550080074
7.40275e-06	-0.00031608853817461665
7.40300e-06	-0.0002923731800635406
7.40325e-06	-0.0002677857321089192
7.40350e-06	-0.00024285909682742593
7.40375e-06	-0.00021793246154593266
7.40400e-06	-0.00019300523256644576
7.40425e-06	-0.00016807777267642288
7.40450e-06	-0.00014329776639291158
7.40475e-06	-0.00011805948352369144
7.40500e-06	-9.174646254808872e-05
7.40525e-06	-6.426871157667893e-05
7.40550e-06	-3.5806162851799316e-05
7.40575e-06	-6.581967593704131e-06
7.40600e-06	2.318075642024231e-05
7.40625e-06	5.326910851053219e-05
7.40650e-06	8.367107866453992e-05
7.40675e-06	0.00011469828193513792
7.40700e-06	0.0001466327925622114
7.40725e-06	0.00017967988459779218
7.40750e-06	0.00021305377085159002
7.40775e-06	0.00024704361519371814
7.40800e-06	0.0002812730279462322
7.40825e-06	0.0003155024406988623
7.40850e-06	0.00034988542214644055
7.40875e-06	0.0003843281320218503
7.40900e-06	0.0004187708418971434
7.40925e-06	0.0004532135517724365
7.40950e-06	0.0004870419205131116
7.40975e-06	0.0005206313497351589
7.41000e-06	0.0005542207789572063
7.41025e-06	0.0005878102081793674
7.41050e-06	0.0006193612280152842
7.41075e-06	0.0006501194366105005
7.41100e-06	0.0006808776452058209
7.41125e-06	0.0007091851107399334
7.41150e-06	0.000736539393532591
7.41175e-06	0.0007638936763253413
7.41200e-06	0.000787597918341562
7.41225e-06	0.0008098825272967466
7.41250e-06	0.0008321671362520067
7.41275e-06	0.0008520453129641352
7.41300e-06	0.0008709875410169646
7.41325e-06	0.0008899297690697297
7.41350e-06	0.00090609173914932
7.41375e-06	0.0009211723662033506
7.41400e-06	0.0009362529932573301
7.41425e-06	0.0009513336203113095
7.41450e-06	0.0009664142473653401
7.41475e-06	0.0009814948744193196
7.41500e-06	0.000996575501473299
7.41525e-06	0.0010107852375804754
7.41550e-06	0.0010219068278918015
7.41575e-06	0.0010330284182031276
7.41600e-06	0.0010441500085144912
7.41625e-06	0.0010552715988258173
7.41650e-06	0.0010663931891371433
7.41675e-06	0.0010775147794485072
7.41700e-06	0.0010886363697598332
7.41725e-06	0.001098827539058836
7.41750e-06	0.0011075519942471091
7.41775e-06	0.0011158467372671965
7.41800e-06	0.0011241414802873123
7.41825e-06	0.0011324362233073996
7.41850e-06	0.0011407309663274872
7.41875e-06	0.0011490257093476027
7.41900e-06	0.0011573204523676903
7.41925e-06	0.0011656151953877776
7.41950e-06	0.0011739099384078932
7.41975e-06	0.0011822046814279807
7.42000e-06	0.0011885764131721334
7.42025e-06	0.0011942002161805004
7.42050e-06	0.0011998240191888482
7.42075e-06	0.0012054478221971959
7.42100e-06	0.0012110716252055626
7.42125e-06	0.0012166954282139104
7.42150e-06	0.0012223192312222771
7.42175e-06	0.0012279430342306248
7.42200e-06	0.0012335668372389728
7.42225e-06	0.0012391906402473396
7.42250e-06	0.0012420258707177378
7.42275e-06	0.0012437765243273713
7.42300e-06	0.0012455271779370108
7.42325e-06	0.001243064336530647
7.42350e-06	0.0012389627143018257
7.42375e-06	0.0012348610920729908
7.42400e-06	0.0012267944618495597
7.42425e-06	0.0012171856964063937
7.42450e-06	0.001207576930963195
7.42475e-06	0.0011933316223278997
7.42500e-06	0.0011772829941119113
7.42525e-06	0.0011612343658958684
7.42550e-06	0.001140503235284871
7.42575e-06	0.0011179509098945151
7.42600e-06	0.0010953985845042358
7.42625e-06	0.0010690069474437033
7.42650e-06	0.0010411220630166178
7.42675e-06	0.0010132371785896265
7.42700e-06	0.0009816507762847638
7.42725e-06	0.0009486247196100325
7.42750e-06	0.0009155986629354129
7.42775e-06	0.0008793403500042622
7.42800e-06	0.0008418248955441996
7.42825e-06	0.0008043094410842642
7.42850e-06	0.0007667939866243288
7.42875e-06	0.0007292785321642662
7.42900e-06	0.000690175490380719
7.42925e-06	0.0006504549783854631
7.42950e-06	0.0006107344663900725
7.42975e-06	0.0005710139543948166
7.43000e-06	0.0005312934423994261
7.43025e-06	0.0004927602857115762
7.43050e-06	0.0004546889345081297
7.43075e-06	0.0004166175833045541
7.43100e-06	0.0003804324871903893
7.43125e-06	0.0003449810239995506
7.43150e-06	0.0003111450337737985
7.43175e-06	0.0002792611731246119
7.43200e-06	0.00024940106081051435
7.43225e-06	0.00022179817496479774
7.43250e-06	0.00019621951135371534
7.43275e-06	0.0001716758755172584
7.43300e-06	0.00014723467101642373
7.43325e-06	0.0001226599092251494
7.43350e-06	9.821103586937405e-05
7.43375e-06	7.382590403195695e-05
7.43400e-06	4.991504602329069e-05
7.43425e-06	2.6696954789956275e-05
7.43450e-06	4.038813789968912e-06
7.43475e-06	-1.8624493461866343e-05
7.43500e-06	-4.182254434910539e-05
7.43525e-06	-6.56485579118854e-05
7.43550e-06	-9.003652295852787e-05
7.43575e-06	-0.00011457617794577673
7.43600e-06	-0.00013918544488589316
7.43625e-06	-0.00016382178643581494
7.43650e-06	-0.0001886609578918526
7.43675e-06	-0.00021357901724463794
7.43700e-06	-0.00023849707659742329
7.43725e-06	-0.0002642709452003456
7.43750e-06	-0.00029037766901741094
7.43775e-06	-0.00031648439283447633
7.43800e-06	-0.00034259111665163014
7.43825e-06	-0.0003686978404686955
7.43850e-06	-0.00039460658209786056
7.43875e-06	-0.00042043832128323854
7.43900e-06	-0.00044627006046861646
7.43925e-06	-0.00047210179965408194
7.43950e-06	-0.0004979335388394599
7.43975e-06	-0.0005220560125026534
7.44000e-06	-0.0005455136908958416
7.44025e-06	-0.0005689713692889503
7.44050e-06	-0.000592429047682059
7.44075e-06	-0.0006158867260752472
7.44100e-06	-0.000639344404468356
7.44125e-06	-0.0006614469413395088
7.44150e-06	-0.0006787441985073516
7.44175e-06	-0.0006960414556751358
7.44200e-06	-0.0007133387128429199
7.44225e-06	-0.0007306359700107626
7.44250e-06	-0.0007479332271785467
7.44275e-06	-0.0007652304843463895
7.44300e-06	-0.0007792801602218291
7.44325e-06	-0.0007920667341074588
7.44350e-06	-0.0008048533079931317
7.44375e-06	-0.0008141393258535035
7.44400e-06	-0.000822063850687883
7.44425e-06	-0.0008299883755222895
