Time(s)	Current(A)
1.00000e-05	0.008202392613268022
1.00003e-05	0.008209921854802403
1.00005e-05	0.008217451096336731
1.00008e-05	0.008224980337871111
1.00010e-05	0.008232509579405491
1.00013e-05	0.00824003882093982
1.00015e-05	0.0082475680624742
1.00018e-05	0.00825509730400858
1.00020e-05	0.008262626545542908
1.00023e-05	0.008270155787077288
1.00025e-05	0.008277685028611667
1.00028e-05	0.00828372026652739
1.00030e-05	0.00828969205015622
1.00033e-05	0.008295663833785051
1.00035e-05	0.008301635617413842
1.00038e-05	0.008307607401042673
1.00040e-05	0.008313579184671504
1.00042e-05	0.008319550968300293
1.00045e-05	0.008325522751929123
1.00048e-05	0.008331494535557954
1.00050e-05	0.008337466319186745
1.00053e-05	0.008343438102815574
1.00055e-05	0.008349409886444404
1.00057e-05	0.008355381670073195
1.00060e-05	0.008361353453702026
1.00063e-05	0.008367325237330856
1.00065e-05	0.008373297020959646
1.00068e-05	0.008379268804588476
1.00070e-05	0.008385240588217307
1.00073e-05	0.008391212371846138
1.00075e-05	0.008399317294421923
1.00078e-05	0.008409933831004593
1.00080e-05	0.008420550367587263
1.00083e-05	0.00843116690416986
1.00085e-05	0.00844178344075253
1.00088e-05	0.0084523999773352
1.00090e-05	0.008463016513917797
1.00093e-05	0.008473633050500468
1.00095e-05	0.008484249587083138
1.00098e-05	0.008494866123665736
1.00100e-05	0.008505482660248406
1.00103e-05	0.008516099196831075
1.00105e-05	0.008526715733413674
1.00108e-05	0.008537332269996343
1.00110e-05	0.008547948806579013
1.00113e-05	0.00855856534316161
1.00115e-05	0.00857606982742971
1.00118e-05	0.008593866861062666
1.00120e-05	0.0086116638946955
1.00123e-05	0.008629460928328456
1.00125e-05	0.008647257961961412
1.00127e-05	0.008665054995594246
1.00130e-05	0.0086828520292272
1.00133e-05	0.008700649062860156
1.00135e-05	0.00871844609649299
1.00138e-05	0.008736243130125946
1.00140e-05	0.008754040163758902
1.00142e-05	0.008771837197391736
1.00145e-05	0.008789634231024692
1.00148e-05	0.008807431264657646
1.00150e-05	0.008825228298290482
1.00153e-05	0.008839405489319972
1.00155e-05	0.008849320582279982
1.00157e-05	0.008859235675239926
1.00160e-05	0.008869150768199937
1.00163e-05	0.008879065861159949
1.00165e-05	0.00888898095411996
1.00168e-05	0.008898896047079904
1.00170e-05	0.008908811140039916
1.00173e-05	0.008918726232999927
1.00175e-05	0.008928641325959871
1.00178e-05	0.008938556418919882
1.00180e-05	0.008948471511879894
1.00183e-05	0.008949224903671732
1.00185e-05	0.008939191067083461
1.00188e-05	0.008929157230495192
1.00190e-05	0.008919123393906991
1.00193e-05	0.008909089557318723
1.00195e-05	0.008899055720730454
1.00198e-05	0.008889021884142251
1.00200e-05	0.008878988047553982
1.00203e-05	0.008868954210965714
1.00205e-05	0.008858920374377513
1.00208e-05	0.008848886537789244
1.00210e-05	0.008838852701200973
1.00212e-05	0.008821681394221674
1.00215e-05	0.008796106241519873
1.00218e-05	0.00877053108881807
1.00220e-05	0.008744955936116443
1.00223e-05	0.008719380783414641
1.00225e-05	0.008693805630712838
1.00227e-05	0.008668230478011211
1.00230e-05	0.008642655325309409
1.00233e-05	0.008617080172607608
1.00235e-05	0.008591505019905979
1.00238e-05	0.008565929867204176
1.00240e-05	0.008540354714502376
1.00242e-05	0.008514779561800747
1.00245e-05	0.008489204409098946
1.00248e-05	0.008468043803182
1.00250e-05	0.008447070694749089
1.00253e-05	0.00842609758631632
1.00255e-05	0.00840512447788341
1.00258e-05	0.008384151369450499
1.00260e-05	0.008363178261017729
1.00263e-05	0.008342205152584818
1.00265e-05	0.008321232044151907
1.00268e-05	0.008300258935719139
1.00270e-05	0.008279285827286228
1.00273e-05	0.008258312718853316
1.00275e-05	0.008237339610420547
1.00278e-05	0.008216366501987636
1.00280e-05	0.008203193876998466
1.00283e-05	0.008199205746773413
1.00285e-05	0.008195217616548336
1.00288e-05	0.008191229486323257
1.00290e-05	0.008187241356098204
1.00293e-05	0.008183253225873127
1.00295e-05	0.008179265095648048
1.00297e-05	0.008175276965422997
1.00300e-05	0.008171288835197918
1.00303e-05	0.00816730070497284
1.00305e-05	0.008163312574747788
1.00308e-05	0.00815932444452271
1.00310e-05	0.00815533631429763
1.00312e-05	0.00815134818407258
1.00315e-05	0.0081473600538475
1.00318e-05	0.008143371923622422
1.00320e-05	0.00813938379339737
1.00323e-05	0.008135395663172292
1.00325e-05	0.008135013521117035
1.00327e-05	0.008138877164557948
1.00330e-05	0.008142740807998886
1.00333e-05	0.008146604451439825
1.00335e-05	0.008150468094880762
1.00338e-05	0.008154331738321675
1.00340e-05	0.008158195381762613
1.00343e-05	0.00816205902520355
1.00345e-05	0.008165922668644464
1.00348e-05	0.008169786312085401
1.00350e-05	0.00817364995552634
1.00353e-05	0.008177513598967252
1.00355e-05	0.00818137724240819
1.00358e-05	0.008185240885849128
1.00360e-05	0.00818910452929004
1.00363e-05	0.008192968172730979
1.00365e-05	0.008196831816171916
1.00368e-05	0.00820069545961283
1.00370e-05	0.008200418794704305
1.00373e-05	0.008195267221639137
1.00375e-05	0.008190115648574003
1.00378e-05	0.008184964075508835
1.00380e-05	0.008179812502443665
1.00382e-05	0.008174660929378531
1.00385e-05	0.008169509356313363
1.00388e-05	0.008164357783248194
1.00390e-05	0.00815920621018306
1.00393e-05	0.008154054637117892
1.00395e-05	0.008148903064052722
1.00397e-05	0.008143751490987589
1.00400e-05	0.00813859991792242
1.00403e-05	0.008133448344857252
1.00405e-05	0.008128296771792118
1.00408e-05	0.00812314519872695
1.00410e-05	0.00811799362566178
1.00412e-05	0.008112842052596646
1.00415e-05	0.008107690479531478
1.00418e-05	0.008094955330876232
1.00420e-05	0.008081898087696597
1.00423e-05	0.008068840844517049
1.00425e-05	0.008055783601337414
1.00428e-05	0.00804272635815778
1.00430e-05	0.008029669114978231
1.00433e-05	0.008016611871798597
1.00435e-05	0.008003554628618962
1.00438e-05	0.007990497385439414
1.00440e-05	0.00797744014225978
1.00443e-05	0.007964382899080143
1.00445e-05	0.007951325655900596
1.00448e-05	0.007938268412720962
1.00450e-05	0.007925211169541325
1.00453e-05	0.007912153926361779
1.00455e-05	0.007899096683182144
1.00458e-05	0.007886039440002508
1.00460e-05	0.007872982196822961
1.00463e-05	0.007864397980202166
1.00465e-05	0.007861080422926868
1.00467e-05	0.007857762865651593
1.00470e-05	0.007854445308376293
1.00473e-05	0.007851127751100995
1.00475e-05	0.00784781019382572
1.00478e-05	0.007844492636550422
1.00480e-05	0.007841175079275123
1.00482e-05	0.007837857521999848
1.00485e-05	0.00783453996472455
1.00488e-05	0.00783122240744925
1.00490e-05	0.007827904850173975
1.00493e-05	0.007824587292898677
1.00495e-05	0.007821269735623379
1.00497e-05	0.007817952178348103
1.00500e-05	0.007821266831578303
1.00503e-05	0.007832390424233176
1.00505e-05	0.007843514016888051
1.00508e-05	0.00785463760954285
1.00510e-05	0.007865761202197723
1.00513e-05	0.007876884794852598
1.00515e-05	0.007888008387507396
1.00518e-05	0.00789913198016227
1.00520e-05	0.007910255572817144
1.00523e-05	0.007921379165471943
1.00525e-05	0.007932502758126818
1.00528e-05	0.00794362635078169
1.00530e-05	0.00795474994343649
1.00533e-05	0.007965873536091364
1.00535e-05	0.007976997128746237
1.00538e-05	0.007988651025480123
1.00540e-05	0.0080009293162117
1.00543e-05	0.008013207606943278
1.00545e-05	0.008025485897674774
1.00548e-05	0.00803776418840635
1.00550e-05	0.00805004247913793
1.00552e-05	0.008062320769869425
1.00555e-05	0.008074599060601003
1.00558e-05	0.00808687735133258
1.00560e-05	0.008099155642064076
1.00563e-05	0.008111433932795654
1.00565e-05	0.008123712223527231
1.00567e-05	0.008135990514258727
1.00570e-05	0.008148268804990305
1.00573e-05	0.008154000090544887
1.00575e-05	0.008152022759672908
1.00578e-05	0.008150045428800917
1.00580e-05	0.008148068097928925
1.00582e-05	0.008146090767056947
1.00585e-05	0.008144113436184956
1.00588e-05	0.008142136105312963
1.00590e-05	0.008140158774440971
1.00593e-05	0.008138181443568994
1.00595e-05	0.008136204112697002
1.00598e-05	0.00813422678182501
1.00600e-05	0.008132249450953031
1.00603e-05	0.00813027212008104
1.00605e-05	0.008128294789209048
1.00608e-05	0.008120071657681485
1.00610e-05	0.008104494555867588
1.00613e-05	0.008088917454053693
1.00615e-05	0.008073340352239904
1.00618e-05	0.008057763250426009
1.00620e-05	0.008042186148612114
1.00623e-05	0.008026609046798323
1.00625e-05	0.008011031944984428
1.00628e-05	0.007995454843170532
1.00630e-05	0.007979877741356743
1.00633e-05	0.007964300639542848
1.00635e-05	0.007948723537728953
1.00637e-05	0.007933146435915162
1.00640e-05	0.007917569334101267
1.00643e-05	0.007902328647094451
1.00645e-05	0.007887484063747112
1.00648e-05	0.007872639480399672
1.00650e-05	0.007857794897052232
1.00652e-05	0.007842950313704893
1.00655e-05	0.007828105730357453
1.00658e-05	0.007813261147010014
1.00660e-05	0.0077984165636626745
1.00663e-05	0.007783571980315235
1.00665e-05	0.007768727396967795
1.00667e-05	0.007753882813620456
1.00670e-05	0.007739038230273016
1.00673e-05	0.007724193646925576
1.00675e-05	0.007709349063578137
1.00678e-05	0.007696898842336143
1.00680e-05	0.007687267806135758
1.00683e-05	0.007677636769935373
1.00685e-05	0.007668005733735053
1.00688e-05	0.007658374697534668
1.00690e-05	0.007648743661334283
1.00693e-05	0.007639112625133963
1.00695e-05	0.007629481588933578
1.00698e-05	0.007619850552733193
1.00700e-05	0.0076102195165328726
1.00703e-05	0.0076005884803324875
1.00705e-05	0.007590957444132102
1.00708e-05	0.007581326407931782
1.00710e-05	0.007571695371731397
1.00713e-05	0.007562064335531012
1.00715e-05	0.007552433299330692
1.00718e-05	0.007542802263130307
1.00720e-05	0.007533171226929922
1.00722e-05	0.007523540190729602
1.00725e-05	0.007513909154529217
1.00728e-05	0.007504278118328832
1.00730e-05	0.007494647082128512
1.00733e-05	0.0074850160459281265
1.00735e-05	0.007475385009727741
1.00737e-05	0.007465753973527421
1.00740e-05	0.007456122937327036
1.00743e-05	0.007446491901126651
1.00745e-05	0.007436860864926331
1.00748e-05	0.007427229828725946
1.00750e-05	0.007417598792525561
1.00752e-05	0.007407967756325241
1.00755e-05	0.007398336720124856
1.00758e-05	0.007388705683924471
1.00760e-05	0.0073790746477240855
1.00763e-05	0.0073694436115237655
1.00765e-05	0.007365801033350903
1.00768e-05	0.007362412800839879
1.00770e-05	0.00735902456832888
1.00773e-05	0.007355636335817857
1.00775e-05	0.007352248103306834
1.00778e-05	0.007348859870795834
1.00780e-05	0.007345471638284811
1.00783e-05	0.007342083405773789
1.00785e-05	0.007338695173262789
1.00788e-05	0.007335306940751766
1.00790e-05	0.007331918708240743
1.00793e-05	0.0073285304757297436
1.00795e-05	0.00732514224321872
1.00798e-05	0.0073217540107076975
1.00800e-05	0.0073183657781966975
1.00803e-05	0.007314977545685675
1.00805e-05	0.007311589313174652
1.00808e-05	0.007308201080663652
1.00810e-05	0.00730481284815263
1.00813e-05	0.007301424615641606
1.00815e-05	0.007298036383130607
1.00818e-05	0.007294648150619584
1.00820e-05	0.007291259918108561
1.00822e-05	0.007287871685597561
1.00825e-05	0.007284483453086538
1.00828e-05	0.007281095220575516
1.00830e-05	0.007277706988064516
1.00833e-05	0.007274318755553493
1.00835e-05	0.0072709305230424705
1.00837e-05	0.0072675422905314705
1.00840e-05	0.007264154058020447
1.00843e-05	0.0072607658255094245
1.00845e-05	0.007257377592998402
1.00848e-05	0.007253989360487402
1.00850e-05	0.00725237420077422
1.00853e-05	0.007252846703700442
1.00855e-05	0.0072533192066266605
1.00858e-05	0.007253791709552882
1.00860e-05	0.007254264212479104
1.00863e-05	0.007254736715405322
1.00865e-05	0.007255209218331544
1.00868e-05	0.007255681721257766
1.00870e-05	0.007256154224183985
1.00873e-05	0.007256626727110206
1.00875e-05	0.007257099230036428
1.00878e-05	0.007257571732962646
1.00880e-05	0.007258044235888868
1.00883e-05	0.007264296694398744
1.00885e-05	0.007277354624936957
1.00888e-05	0.007290412555475258
1.00890e-05	0.0073034704860135595
1.00893e-05	0.007316528416551772
1.00895e-05	0.007329586347090073
1.00898e-05	0.007342644277628374
1.00900e-05	0.007355702208166587
1.00903e-05	0.007368760138704888
1.00905e-05	0.007381818069243189
1.00907e-05	0.007394875999781402
1.00910e-05	0.007407933930319703
1.00913e-05	0.007420991860858004
1.00915e-05	0.00743904842703048
1.00918e-05	0.007462990518532729
1.00920e-05	0.007486932610034978
1.00922e-05	0.007510874701537065
1.00925e-05	0.0075348167930393145
1.00928e-05	0.007558758884541564
1.00930e-05	0.007582700976043813
1.00933e-05	0.0076066430675459
1.00935e-05	0.007630585159048149
1.00938e-05	0.0076545272505503985
1.00940e-05	0.0076784693420524856
1.00943e-05	0.007702411433554735
1.00945e-05	0.007724226345143061
1.00948e-05	0.007743536659040758
1.00950e-05	0.007762846972938587
1.00953e-05	0.007782157286836415
1.00955e-05	0.007801467600734112
1.00958e-05	0.00782077791463194
1.00960e-05	0.007840088228529768
1.00963e-05	0.007859398542427466
1.00965e-05	0.007878708856325295
1.00968e-05	0.007898019170223123
1.00970e-05	0.00791732948412082
1.00973e-05	0.007936639798018648
1.00975e-05	0.00795184720655674
1.00978e-05	0.007962223746195431
1.00980e-05	0.007972600285834191
1.00983e-05	0.007982976825472951
1.00985e-05	0.007993353365111642
1.00988e-05	0.008003729904750404
1.00990e-05	0.008014106444389164
1.00992e-05	0.008024482984027855
1.00995e-05	0.008034859523666615
1.00998e-05	0.008045236063305377
1.01000e-05	0.008055612602944068
1.01003e-05	0.008065989142582828
1.01005e-05	0.008076365682221589
1.01007e-05	0.00808674222186028
1.01010e-05	0.008097118761499041
1.01013e-05	0.008107495301137801
1.01015e-05	0.008117871840776562
1.01018e-05	0.008128248380415252
1.01020e-05	0.008138624920054014
1.01023e-05	0.008149001459692775
1.01025e-05	0.008159377999331465
1.01028e-05	0.008169754538970226
1.01030e-05	0.008180131078608988
1.01033e-05	0.008190507618247678
1.01035e-05	0.008200884157886439
1.01038e-05	0.008211260697525199
1.01040e-05	0.00822163723716389
1.01043e-05	0.008232013776802652
1.01045e-05	0.008242390316441412
1.01048e-05	0.008252766856080103
1.01050e-05	0.008262442035800396
1.01053e-05	0.008270139105546793
1.01055e-05	-0.09462129205594046
1.01058e-05	-0.04993866636319583
1.01060e-05	0.008337763400554837
1.01063e-05	0.04820237833564924
1.01065e-05	0.08414243727666441
1.01068e-05	0.05341771947772298
1.01070e-05	0.015362013514134853
1.01073e-05	-0.021764025581575155
1.01075e-05	-0.05728606179136648
1.01077e-05	-0.027966223319707554
1.01080e-05	0.008514324559563337
1.01083e-05	0.033469258996742995
1.01085e-05	0.055967810747005714
1.01088e-05	0.036709257850143645
1.01090e-05	0.012861948569877903
1.01092e-05	-0.010399631675133924
1.01095e-05	-0.03265327585361705
1.01098e-05	-0.014288880529305013
1.01100e-05	0.008559991142297222
1.01103e-05	0.024188283011501895
1.01105e-05	0.03827726056592366
1.01108e-05	0.026210192805864743
1.01110e-05	0.011270536207742179
1.01113e-05	-0.003300374427781045
1.01115e-05	-0.017238180240212835
1.01118e-05	-0.005732414291148928
1.01120e-05	0.0085815582000899
1.01123e-05	0.018371734666743383
1.01125e-05	0.02719704765603828
1.01128e-05	0.01963836272638736
1.01130e-05	0.01028118591619275
1.01133e-05	0.0011559178255589712
1.01135e-05	-0.007571917995841277
1.01138e-05	-0.0003618626256873007
1.01140e-05	0.008606476558970108
1.01143e-05	0.014740356368166027
1.01145e-05	0.02026921250537226
1.01148e-05	0.015534979784715356
1.01150e-05	0.009674491190185291
1.01153e-05	0.0039596001120099115
1.01155e-05	-0.0015060562093924751
1.01158e-05	0.0030115480670447102
1.01160e-05	0.00862979047779357
1.01162e-05	0.01247178593677187
1.01165e-05	0.01593412136256691
1.01168e-05	0.012967240414479074
1.01170e-05	0.009294606675331316
1.01173e-05	0.005712784456713121
1.01175e-05	0.0022866526028936063
1.01177e-05	0.005113336466104734
1.01180e-05	0.008628496443034643
1.01183e-05	0.011030117086286914
1.01185e-05	0.013193118879897464
1.01188e-05	0.011328306958915627
1.01190e-05	0.00902109510181638
1.01193e-05	0.006770510116431467
1.01195e-05	0.004617225777021523
1.01198e-05	0.006380332450457626
1.01200e-05	0.008574179007373601
1.01203e-05	0.010070039897411258
1.01205e-05	0.011416044931904765
1.01208e-05	0.010238811418769346
1.01210e-05	0.00878440965392576
1.01213e-05	0.007365481043929445
1.01215e-05	0.006007543340407529
1.01218e-05	0.007102797545351172
1.01220e-05	0.00846775443225374
1.01223e-05	0.009395432184940324
1.01225e-05	0.010229246184018662
1.01228e-05	0.00948263086656567
1.01230e-05	0.008562646167564978
1.01233e-05	0.007665180749427644
1.01235e-05	0.006806258286164322
1.01238e-05	0.007484320776747721
1.01240e-05	0.008331598704769854
1.01243e-05	0.008905288420191249
1.01245e-05	0.009420563401665532
1.01247e-05	0.008946331605665152
1.01250e-05	0.008364066402694303
1.01253e-05	0.007796519498792088
1.01255e-05	0.007253770333617206
1.01258e-05	0.007674438758910733
1.01260e-05	0.008201750134890863
1.01262e-05	0.008558379710190824
1.01265e-05	0.00887916311073329
1.01268e-05	0.008580672933995944
1.01270e-05	0.008214248928098643
1.01273e-05	0.007855851648504825
1.01275e-05	0.007511490350334151
1.01278e-05	0.007769162651790426
1.01280e-05	0.008092240278244829
1.01283e-05	0.00830709357754968
1.01285e-05	0.008498274369753058
1.01288e-05	0.008300430270446316
1.01290e-05	0.008059021962691605
1.01293e-05	0.007821718947533524
1.01295e-05	0.007592370465973394
1.01298e-05	0.00773936408274728
1.01300e-05	0.007926622864865975
1.01303e-05	0.008045471974232657
1.01305e-05	0.008148962763499005
1.01308e-05	0.008008334922745868
1.01310e-05	0.00784008551161367
1.01313e-05	0.0076741574419394495
1.01315e-05	0.007513048274811666
1.01318e-05	0.007587588763670223
1.01320e-05	0.007687334210056157
1.01323e-05	0.0077442961520782306
1.01325e-05	0.007791794837707878
1.01328e-05	0.00768662660055587
1.01330e-05	0.007564497070909271
1.01332e-05	0.00744424940104548
1.01335e-05	0.007327531924994705
1.01338e-05	0.007359016031397692
1.01340e-05	0.0074069560918698756
1.01343e-05	0.0074288500377766254
1.01345e-05	0.007445655812816149
1.01347e-05	0.007367760881913535
1.01350e-05	0.007280260871457185
1.01353e-05	0.007195044140095438
1.01355e-05	0.007113229482322082
1.01358e-05	0.0071255177134793525
1.01360e-05	0.007149464639763195
1.01363e-05	0.007158532329423452
1.01365e-05	0.007165935034475035
1.01368e-05	0.0071154091942754885
1.01370e-05	0.007059607946021379
1.01373e-05	0.007005212307698549
1.01375e-05	0.006952635065085025
1.01378e-05	0.0069586987982209235
1.01380e-05	0.006971774938558255
1.01383e-05	0.0069752591596938425
1.01385e-05	0.00697744621012794
1.01388e-05	0.006943112817209136
1.01390e-05	0.0069052606483131305
1.01393e-05	0.0068680923623160315
1.01395e-05	0.006831885477108921
1.01398e-05	0.006832248502146043
1.01400e-05	0.006836858921429164
1.01403e-05	0.006835332265361452
1.01405e-05	0.006821410035611778
1.01408e-05	0.006807181289316754
1.01410e-05	0.006779777829373082
1.01413e-05	0.006752461927821285
1.01415e-05	0.006737150508694895
1.01417e-05	0.006722139451437294
1.01420e-05	0.006720651544274268
1.01423e-05	0.006715622245692095
1.01425e-05	0.006702888554367079
1.01428e-05	0.006689964358168452
1.01430e-05	0.006668884613996212
1.01432e-05	0.006647949978552926
1.01435e-05	0.006634704230548246
1.01438e-05	0.0066216508133423915
1.01440e-05	0.006617268330222144
1.01443e-05	0.006610829294554886
1.01445e-05	0.006599839534299339
1.01448e-05	0.0065887372378873104
1.01450e-05	0.006572832242509872
1.01453e-05	0.006557254445502037
1.01455e-05	0.006546874651097228
1.01458e-05	0.006536624747671688
1.01460e-05	0.006532218082558899
1.01463e-05	0.006526830212553662
1.01465e-05	0.006518614651720234
1.01468e-05	0.006510328985214701
1.01470e-05	0.0065020433187091674
1.01473e-05	0.006495703278312232
1.01475e-05	0.006489411961490039
1.01478e-05	0.006492960226416231
1.01480e-05	0.006496754900246489
1.01483e-05	0.006503334453506702
1.01485e-05	0.006509983747443491
1.01488e-05	0.006516633041380235
1.01490e-05	0.006523282335317024
1.01493e-05	0.006538199044860919
1.01495e-05	0.006553322792150023
1.01498e-05	0.00656844653943923
1.01500e-05	0.006583570286728436
1.01502e-05	0.0066089404278091984
1.01505e-05	0.006634567165433605
1.01508e-05	0.006660193903058012
1.01510e-05	0.006685820640682245
1.01513e-05	0.006711447378306652
