Time(s)	Current(A)
3.30000e-06	-0.0020081096431634965
3.30025e-06	-0.0020032480133058443
3.30050e-06	-0.0019975523353540662
3.30075e-06	-0.0019910501369202267
3.30100e-06	-0.0019837697563476944
3.30125e-06	-0.0019757385018169434
3.30150e-06	-0.0019669867617234534
3.30175e-06	-0.001957581634435524
3.30200e-06	-0.001947660154967336
3.30225e-06	-0.0019373656928871892
3.30250e-06	-0.0019267836344015923
3.30275e-06	-0.0019159697692477846
3.30300e-06	-0.0019049803193266917
3.30325e-06	-0.00189387138342442
3.30350e-06	-0.0018827001205030944
3.30375e-06	-0.001871547304951803
3.30400e-06	-0.001860537610009626
3.30425e-06	-0.0018497991739753455
3.30450e-06	-0.0018394241066039274
3.30475e-06	-0.0018294858927615275
3.30500e-06	-0.0018200584293794062
3.30525e-06	-0.0018112151879246864
3.30550e-06	-0.0018030375168436523
3.30575e-06	-0.0017957459305551434
3.30600e-06	-0.0017897831509688926
3.30625e-06	-0.0017855232363996759
3.30650e-06	-0.0017831016768889436
3.30675e-06	-0.0017831356119552561
3.30700e-06	-0.0017834092233474555
3.30725e-06	-0.0017876079359546852
3.30750e-06	-0.0017918066485619075
3.30775e-06	-0.0017963793454974248
3.30800e-06	-0.0018070766621086105
3.30825e-06	-0.0018177739787197781
3.30850e-06	-0.0018284712953309638
3.30875e-06	-0.001839574477037144
3.30900e-06	-0.0018573243793637278
3.30925e-06	-0.0018750742816903414
3.30950e-06	-0.001892824184016955
3.30975e-06	-0.0019108787770125012
3.31000e-06	-0.001933923189968104
3.31025e-06	-0.0019569676029237456
3.31050e-06	-0.0019802000110169917
3.31075e-06	-0.0020065111543183744
3.31100e-06	-0.0020329310977707086
3.31125e-06	-0.0020611328258986054
3.31150e-06	-0.0020894124694055076
3.31175e-06	-0.0021189681077262014
3.31200e-06	-0.0021485810336140873
3.31225e-06	-0.0021791321393517735
3.31250e-06	-0.0022097036250191514
3.31275e-06	-0.002240608866165835
3.31300e-06	-0.0022714916773306708
3.31325e-06	-0.0023020071599798263
3.31350e-06	-0.0023324608060900686
3.31375e-06	-0.002361901775318813
3.31400e-06	-0.00239124795308604
3.31425e-06	-0.002419041761926208
3.31450e-06	-0.002446737978906936
3.31475e-06	-0.002472755276775196
3.31500e-06	-0.0024973587443531424
3.31525e-06	-0.0025203446950247594
3.31550e-06	-0.002541500774741519
3.31575e-06	-0.0025604461343919065
3.31600e-06	-0.0025765478174144167
3.31625e-06	-0.002589296356361497
3.31650e-06	-0.002598463019575132
3.31675e-06	-0.0026027624702408404
3.31700e-06	-0.0026066717410550854
3.31725e-06	-0.002604191163377595
3.31750e-06	-0.002601311147116585
3.31775e-06	-0.002591889655121123
3.31800e-06	-0.0025821414678942455
3.31825e-06	-0.0025668260884009024
3.31850e-06	-0.0025477501010586676
3.31875e-06	-0.0025250927452659844
3.31900e-06	-0.002499032682520767
3.31925e-06	-0.0024697498105164142
3.31950e-06	-0.002437419119415564
3.31975e-06	-0.0024021505745579694
3.32000e-06	-0.00236395476364023
3.32025e-06	-0.0023228910408750777
3.32050e-06	-0.0022791672516258837
3.32075e-06	-0.002233054876423218
3.32100e-06	-0.0021848254091966983
3.32125e-06	-0.002134750536509236
3.32150e-06	-0.002083099228225098
3.32175e-06	-0.002030099291913204
3.32200e-06	-0.0019759168328306554
3.32225e-06	-0.0019207479767586997
3.32250e-06	-0.0018648822291060004
3.32275e-06	-0.0018086488124027795
3.32300e-06	-0.0017523769424794555
3.32325e-06	-0.0016963957254509286
3.32350e-06	-0.001641032833735526
3.32375e-06	-0.0015865900420434743
3.32400e-06	-0.0015333304489124394
3.32425e-06	-0.0014815358804260662
3.32450e-06	-0.0014315466326607555
3.32475e-06	-0.0013837280034972
3.32500e-06	-0.0013384450780842502
3.32525e-06	-0.001296063031187994
3.32550e-06	-0.0012569552168130802
3.32575e-06	-0.0012216472514045798
3.32600e-06	-0.0011908671612616837
3.32625e-06	-0.001165168289098954
3.32650e-06	-0.001144709463205197
3.32675e-06	-0.0011294899984875017
3.32700e-06	-0.001119660114813766
3.32725e-06	-0.0011172349508294654
3.32750e-06	-0.0011154272042530175
3.32775e-06	-0.0011237307017052992
3.32800e-06	-0.0011326821362136789
3.32825e-06	-0.0011522446251011544
3.32850e-06	-0.0011724217008507027
3.32875e-06	-0.0012026636657012262
3.32900e-06	-0.0012334673079808847
3.32925e-06	-0.001273469358790447
3.32950e-06	-0.0013139893726826803
3.32975e-06	-0.0013629918994763092
3.33000e-06	-0.0014124786974832998
3.33025e-06	-0.0014698962476074305
3.33050e-06	-0.0015277243776113008
3.33075e-06	-0.0015922764407336925
3.33100e-06	-0.001657153149035291
3.33125e-06	-0.0017273464658226535
3.33150e-06	-0.0017977842613727596
3.33175e-06	-0.0018722258060843494
3.33200e-06	-0.0019468379472885045
3.33225e-06	-0.0020242438917550953
3.33250e-06	-0.0021017215143506254
3.33275e-06	-0.0021803729863454427
3.33300e-06	-0.002258989547158718
3.33325e-06	-0.002337034378911495
3.33350e-06	-0.002414941354709591
3.33375e-06	-0.002490590708385007
3.33400e-06	-0.002566076158385031
3.33425e-06	-0.0026387315091378717
3.33450e-06	-0.0027087188897835695
3.33475e-06	-0.002774144067819663
3.33500e-06	-0.0028389609922702605
3.33525e-06	-0.0028938167456274725
3.33550e-06	-0.0029486724989845913
3.33575e-06	-0.0030027649451423444
3.33600e-06	-0.0030443569576123117
3.33625e-06	-0.0030859489700822084
3.33650e-06	-0.0031269468515478707
3.33675e-06	-0.003158214842837367
3.33700e-06	-0.0031888227396813552
3.33725e-06	-0.0032086204845316393
3.33750e-06	-0.003228418229381957
3.33775e-06	-0.003247575056036688
3.33800e-06	-0.0032562357739039953
3.33825e-06	-0.003264453928399156
3.33850e-06	-0.003265424366521906
3.33875e-06	-0.0032660678146346866
3.33900e-06	-0.003261139135793227
3.33925e-06	-0.0032524383793507746
3.33950e-06	-0.0032399841694780544
3.33975e-06	-0.0032239114964006197
3.34000e-06	-0.003204578460078577
3.34025e-06	-0.0031823791465911103
3.34050e-06	-0.003157540628302458
3.34075e-06	-0.0031302032484945216
3.34100e-06	-0.0031005064995209587
3.34125e-06	-0.003068590325997638
3.34150e-06	-0.003034598791090806
3.34175e-06	-0.002998748307552273
3.34200e-06	-0.002961396096053159
3.34225e-06	-0.0029229208888902143
3.34250e-06	-0.0028835975689241347
3.34275e-06	-0.0028436461611132382
3.34300e-06	-0.0028032866636177795
3.34325e-06	-0.002762738649133621
3.34350e-06	-0.002722224402008643
3.34375e-06	-0.0026820122866902823
3.34400e-06	-0.002642457989570591
3.34425e-06	-0.002603931098681217
3.34450e-06	-0.0025667357228674973
3.34475e-06	-0.002531142124910637
3.34500e-06	-0.002497488661389405
3.34525e-06	-0.0024669674743894284
3.34550e-06	-0.0024366493430403825
3.34575e-06	-0.002409748585792696
3.34600e-06	-0.002384403084472365
3.34625e-06	-0.002359895027146254
3.34650e-06	-0.0023361079180454374
3.34675e-06	-0.0023132175041086947
3.34700e-06	-0.0022913989141771936
3.34725e-06	-0.002270827881790792
3.34750e-06	-0.0022516672170318237
3.34775e-06	-0.002233858449897299
3.34800e-06	-0.0022169490715974946
3.34825e-06	-0.0022004955242030818
3.34850e-06	-0.002184431230471873
3.34875e-06	-0.0021689171089625562
3.34900e-06	-0.002154708386102959
3.34925e-06	-0.002140499663243338
3.34950e-06	-0.002126401375216587
3.34975e-06	-0.002114111642521961
3.35000e-06	-0.0021018599898801355
3.35025e-06	-0.002090231961874774
3.35050e-06	-0.0020786519292068702
3.35075e-06	-0.002067857900567095
3.35100e-06	-0.0020570638719273017
3.35125e-06	-0.002046354426918697
3.35150e-06	-0.0020370301805220916
3.35175e-06	-0.0020277059341254704
3.35200e-06	-0.0020184374589719916
3.35225e-06	-0.0020100823313244725
3.35250e-06	-0.0020017272036769672
3.35275e-06	-0.001993372076029448
3.35300e-06	-0.001985092234200555
3.35325e-06	-0.001978045323732078
3.35350e-06	-0.001970998413263589
3.35375e-06	-0.0019639515027951
3.35400e-06	-0.0019569608693832587
3.35425e-06	-0.00195089186702068
3.35450e-06	-0.001944822864658091
3.35475e-06	-0.0019387837778706224
3.35500e-06	-0.0019332535549582603
3.35525e-06	-0.0019280549329044343
3.35550e-06	-0.0019232562783976972
3.35575e-06	-0.0019192886113991983
3.35600e-06	-0.0019154325315504045
3.35625e-06	-0.0019134038781522466
3.35650e-06	-0.0019115818646463685
3.35675e-06	-0.0019131439254346408
3.35700e-06	-0.0019147059862229157
3.35725e-06	-0.0019162680470111906
3.35750e-06	-0.0019178301077994626
3.35775e-06	-0.0019197044960353497
3.35800e-06	-0.0019266937692780045
3.35825e-06	-0.0019336830425206594
3.35850e-06	-0.0019406723157633023
3.35875e-06	-0.001947661589005957
3.35900e-06	-0.0019549557563997605
3.35925e-06	-0.0019672430761222422
3.35950e-06	-0.0019795303958447447
3.35975e-06	-0.0019918177155672473
3.36000e-06	-0.002004105035289729
3.36025e-06	-0.002016392355012232
3.36050e-06	-0.002030991125540341
3.36075e-06	-0.0020474241853708957
3.36100e-06	-0.0020638572452014226
3.36125e-06	-0.0020802903050319774
3.36150e-06	-0.002096723364862532
3.36175e-06	-0.002113257826953293
3.36200e-06	-0.0021314529208731267
3.36225e-06	-0.00214964801479296
3.36250e-06	-0.0021678607731050875
3.36275e-06	-0.00218636281542344
3.36300e-06	-0.0022048648577418237
3.36325e-06	-0.0022233279937337175
3.36350e-06	-0.002241153973473115
3.36375e-06	-0.0022589799532125427
3.36400e-06	-0.0022767185131920844
3.36425e-06	-0.002293025428202072
3.36450e-06	-0.002309332343212087
3.36475e-06	-0.0023255231466654844
3.36500e-06	-0.0023398124289278096
3.36525e-06	-0.002354010771950805
3.36550e-06	-0.0023666669064529426
3.36575e-06	-0.002378446611992282
3.36600e-06	-0.0023901205394104815
3.36625e-06	-0.002402656723341415
3.36650e-06	-0.0024152682656690453
3.36675e-06	-0.0024291139279449953
3.36700e-06	-0.002442959590220922
3.36725e-06	-0.0024568398264692417
3.36750e-06	-0.0024712862694160334
3.36775e-06	-0.0024858861768512893
3.36800e-06	-0.0025029993222921063
3.36825e-06	-0.002520112467732923
3.36850e-06	-0.0025372256131737107
3.36875e-06	-0.0025543387586145277
3.36900e-06	-0.002571622108530428
3.36925e-06	-0.0025916928417668477
3.36950e-06	-0.002611763575003234
3.36975e-06	-0.002631834308239654
3.37000e-06	-0.002653155932602478
3.37025e-06	-0.0026754702219210984
3.37050e-06	-0.0026977845112397566
3.37075e-06	-0.0027201918058010364
3.37100e-06	-0.002744122216965996
3.37125e-06	-0.0027680526281309145
3.37150e-06	-0.0027920099088240675
3.37175e-06	-0.002816407223039767
3.37200e-06	-0.0028408045372554256
3.37225e-06	-0.002865214357235577
3.37250e-06	-0.0028898289800520205
3.37275e-06	-0.002914443602868422
3.37300e-06	-0.002938999095750734
3.37325e-06	-0.002962586236936733
3.37350e-06	-0.002986173378122732
3.37375e-06	-0.003009650812490047
3.37400e-06	-0.0030313316139760228
3.37425e-06	-0.003053012415461998
3.37450e-06	-0.0030745974227922475
3.37475e-06	-0.003094551040112764
3.37500e-06	-0.003113407774722492
3.37525e-06	-0.0031310095614124575
3.37550e-06	-0.0031471734898609704
3.37575e-06	-0.0031612563154356354
3.37600e-06	-0.0031718658725204043
3.37625e-06	-0.003177808753033901
3.37650e-06	-0.003178818159085576
3.37675e-06	-0.0031750433351180034
3.37700e-06	-0.0031666335389728037
3.37725e-06	-0.003153738221125132
3.37750e-06	-0.0031364905555294888
3.37775e-06	-0.0031147354328631255
3.37800e-06	-0.0030876893778584483
3.37825e-06	-0.003052708785540569
3.37850e-06	-0.003017267139184989
3.37875e-06	-0.002973993795518784
3.37900e-06	-0.0029258543900079815
3.37925e-06	-0.002873190512004962
3.37950e-06	-0.0028163342208445516
3.37975e-06	-0.002755313474804258
3.38000e-06	-0.00268834404752413
3.38025e-06	-0.00262102304970774
3.38050e-06	-0.0025477422639740466
3.38075e-06	-0.0024709739356186715
3.38100e-06	-0.002391179808005204
3.38125e-06	-0.0023088222693930507
3.38150e-06	-0.0022243572446600463
3.38175e-06	-0.002138127081370869
3.38200e-06	-0.002050290824426609
3.38225e-06	-0.0019610557353456444
3.38250e-06	-0.0018708571515544264
3.38275e-06	-0.0017802324528781758
3.38300e-06	-0.0016897191154588867
3.38325e-06	-0.001599854409405517
3.38350e-06	-0.0015111719117413605
3.38375e-06	-0.0014241339971737545
3.38400e-06	-0.0013390876694943106
3.38425e-06	-0.0012564107827084023
3.38450e-06	-0.0011766237707176767
3.38475e-06	-0.0011003109220225063
3.38500e-06	-0.0010280565217731282
3.38525e-06	-0.0009604447969125028
3.38550e-06	-0.0008980597788358036
3.38575e-06	-0.0008414781702684952
3.38600e-06	-0.000791182565785322
3.38625e-06	-0.0007474528852278759
3.38650e-06	-0.0007104181479712325
3.38675e-06	-0.0006801716675952369
3.38700e-06	-0.0006568068640459589
3.38725e-06	-0.0006404170856627169
3.38750e-06	-0.0006310953361503813
3.38775e-06	-0.0006289303050260167
3.38800e-06	-0.0006339514963304594
3.38825e-06	-0.000646061541758413
3.38850e-06	-0.0006650685127758682
3.38875e-06	-0.0006907582533491143
3.38900e-06	-0.0007229164495700305
3.38925e-06	-0.0007613288871973394
3.38950e-06	-0.0008057811438689844
3.38975e-06	-0.0008560561010132015
3.39000e-06	-0.0009118995348141554
3.39025e-06	-0.0009731061293864293
3.39050e-06	-0.0010409990794146102
3.39075e-06	-0.0011093583760983954
3.39100e-06	-0.0011853548802636276
3.39125e-06	-0.001261724071841565
3.39150e-06	-0.001344196643944568
3.39175e-06	-0.0014269442345566682
3.39200e-06	-0.0015141957138284676
3.39225e-06	-0.0016016086146044585
3.39250e-06	-0.001691665062848017
3.39275e-06	-0.0017817618388321539
3.39300e-06	-0.0018725190491054495
3.39325e-06	-0.001963195245473295
3.39350e-06	-0.0020525447034673984
3.39375e-06	-0.002141756740975627
3.39400e-06	-0.0022285833730216315
3.39425e-06	-0.002313031278195365
3.39450e-06	-0.002394383905752881
3.39475e-06	-0.0024704436234378653
3.39500e-06	-0.00254595686154822
3.39525e-06	-0.0026125205814317813
3.39550e-06	-0.002678286612197564
3.39575e-06	-0.0027309891477621754
3.39600e-06	-0.0027836916833268764
3.39625e-06	-0.002835466027655504
3.39650e-06	-0.002872039686042308
3.39675e-06	-0.002908613344429174
3.39700e-06	-0.002944184906978477
3.39725e-06	-0.0029633454719673394
3.39750e-06	-0.0029825060369561692
3.39775e-06	-0.0030008327332041295
3.39800e-06	-0.0030055034323311523
3.39825e-06	-0.0030097206746726095
3.39850e-06	-0.0030062173321862215
3.39875e-06	-0.0029976012377435977
3.39900e-06	-0.0029839448418720474
3.39925e-06	-0.002965321239994636
3.39950e-06	-0.002941808547124856
3.39975e-06	-0.0029135824537861407
3.40000e-06	-0.0028810151352274215
3.40025e-06	-0.0028445307459090967
3.40050e-06	-0.002804433825367272
3.40075e-06	-0.0027609602042459815
3.40100e-06	-0.0027143452877248396
3.40125e-06	-0.002664824700415298
3.40150e-06	-0.0026126373496919
3.40175e-06	-0.0025580832865411806
3.40200e-06	-0.002501585706405244
3.40225e-06	-0.0024436000549224656
3.40250e-06	-0.0023845071511544454
3.40275e-06	-0.0023246443667036356
3.40300e-06	-0.002264349073172791
3.40325e-06	-0.0022039586555635993
3.40350e-06	-0.002143812741563492
3.40375e-06	-0.002084288742497322
3.40400e-06	-0.0020258416193575284
3.40425e-06	-0.00196894657305766
3.40450e-06	-0.0019140313354204237
3.40475e-06	-0.001861497266278476
3.40500e-06	-0.0018117450939676909
3.40525e-06	-0.0017651759588888526
3.40550e-06	-0.001722187165924825
3.40575e-06	-0.0016831107065440724
3.40600e-06	-0.0016481125335939663
3.40625e-06	-0.0016172382399412524
3.40650e-06	-0.001590545945973671
3.40675e-06	-0.0015682505161066223
3.40700e-06	-0.0015521468428459633
3.40725e-06	-0.001536562904689118
3.40750e-06	-0.001529490499265143
3.40775e-06	-0.0015229358961344368
3.40800e-06	-0.0015248611727268122
3.40825e-06	-0.0015272766194559754
3.40850e-06	-0.001537719423069808
3.40875e-06	-0.0015486265869324944
3.40900e-06	-0.0015671384275404811
3.40925e-06	-0.0015860886878687446
3.40950e-06	-0.0016122188053447311
3.40975e-06	-0.0016387483379550038
3.41000e-06	-0.0016718189622953294
3.41025e-06	-0.0017052338915457895
3.41050e-06	-0.0017442873903131058
3.41075e-06	-0.0017836312394331536
3.41100e-06	-0.0018277300618330529
3.41125e-06	-0.001872065209683367
3.41150e-06	-0.001920270582560786
3.41175e-06	-0.001968650062477282
3.41200e-06	-0.002019880836738253
3.41225e-06	-0.002071213436953091
3.41250e-06	-0.002124213607690596
3.41275e-06	-0.0021772440602433325
3.41300e-06	-0.002230770428235495
3.41325e-06	-0.0022842554669093573
3.41350e-06	-0.0023370636687810803
3.41375e-06	-0.002389753851967341
3.41400e-06	-0.00244051128152985
3.41425e-06	-0.0024910676786958253
3.41450e-06	-0.0025383318336961933
3.41475e-06	-0.0025853124182548164
3.41500e-06	-0.002627649061928296
3.41525e-06	-0.002669622712389841
3.41550e-06	-0.0027056517410960937
3.41575e-06	-0.002741190233425416
3.41600e-06	-0.002768695371072608
3.41625e-06	-0.002796200508719753
3.41650e-06	-0.0028231047175876225
3.41675e-06	-0.0028401677113077963
3.41700e-06	-0.002857230705027941
3.41725e-06	-0.0028736516929989773
3.41750e-06	-0.002879558761648912
3.41775e-06	-0.002885465830298836
3.41800e-06	-0.0028908607454647536
3.41825e-06	-0.00288786828961719
3.41850e-06	-0.002884494490581622
3.41875e-06	-0.0028748755582003573
3.41900e-06	-0.0028649800965692743
3.41925e-06	-0.002850376712899324
3.41950e-06	-0.0028326639457449073
3.41975e-06	-0.0028119536655157053
3.42000e-06	-0.002788449682544508
3.42025e-06	-0.0027623926518453345
3.42050e-06	-0.0027339781194932787
3.42075e-06	-0.002703374422043603
3.42100e-06	-0.0026707498692536496
3.42125e-06	-0.0026362723454165884
3.42150e-06	-0.0026001114013526165
3.42175e-06	-0.002562463756845656
3.42200e-06	-0.0025235843847642467
3.42225e-06	-0.0024837499500405215
3.42250e-06	-0.0024432103587867056
3.42275e-06	-0.002402197716356456
3.42300e-06	-0.0023609437160383444
3.42325e-06	-0.00231968047658492
3.42350e-06	-0.002278640821850632
3.42375e-06	-0.0022380748335183043
3.42400e-06	-0.0021982682415944213
3.42425e-06	-0.0021595217360695948
3.42450e-06	-0.0021221180286835517
3.42475e-06	-0.002086329258261681
3.42500e-06	-0.0020524269321324316
3.42525e-06	-0.0020206829964876513
3.42550e-06	-0.001991372599888138
3.42575e-06	-0.001964827126975847
3.42600e-06	-0.0019414338711852086
3.42625e-06	-0.001921467707743198
3.42650e-06	-0.0019051208648976753
3.42675e-06	-0.0018937837005738888
3.42700e-06	-0.0018829630701013244
3.42725e-06	-0.0018806015464929602
3.42750e-06	-0.0018782400228845922
3.42775e-06	-0.0018765196564198058
3.42800e-06	-0.0018852993119409156
3.42825e-06	-0.0018940789674620402
3.42850e-06	-0.0019034715729284442
3.42875e-06	-0.0019229022602690413
3.42900e-06	-0.0019423329476096058
3.42925e-06	-0.0019623090448348235
3.42950e-06	-0.001991217142330459
3.42975e-06	-0.0020201252398260455
3.43000e-06	-0.0020494413133214863
3.43025e-06	-0.002085438677060202
3.43050e-06	-0.0021217090662013645
3.43075e-06	-0.0021624507035504933
3.43100e-06	-0.0022034113213012215
3.43125e-06	-0.0022479581098595854
3.43150e-06	-0.0022926719173682413
3.43175e-06	-0.0023401209398997507
3.43200e-06	-0.002387684973033785
3.43225e-06	-0.002437132497395014
3.43250e-06	-0.0024866302614317683
3.43275e-06	-0.002536950784291461
3.43300e-06	-0.0025872533457469847
3.43325e-06	-0.0026372617591287747
3.43350e-06	-0.002687185329831655
3.43375e-06	-0.0027357194595779132
3.43400e-06	-0.0027841018385722067
3.43425e-06	-0.002829999044863763
3.43450e-06	-0.0028757359049235605
3.43475e-06	-0.002918714230068692
3.43500e-06	-0.002959369248950516
3.43525e-06	-0.002997367002031759
3.43550e-06	-0.0030323605024304367
3.43575e-06	-0.0030637915514387724
3.43600e-06	-0.003090793140438446
3.43625e-06	-0.0031125298663922693
3.43650e-06	-0.0031267913253926662
3.43675e-06	-0.0031403001271938778
3.43700e-06	-0.0031414829068636403
3.43725e-06	-0.0031426656865334024
3.43750e-06	-0.0031429194352951806
3.43775e-06	-0.0031279587470667554
3.43800e-06	-0.0031129980588383297
3.43825e-06	-0.0030973799425736857
3.43850e-06	-0.0030706826345645376
3.43875e-06	-0.003038566263930448
3.43900e-06	-0.003001286877384342
3.43925e-06	-0.0029590994646779855
3.43950e-06	-0.0029122550511916775
3.43975e-06	-0.0028609213343501303
3.44000e-06	-0.0028051448397260403
3.44025e-06	-0.0027450441473397713
3.44050e-06	-0.00268093463167787
3.44075e-06	-0.0026132137882453063
3.44100e-06	-0.0025422799366770035
3.44125e-06	-0.0024685305456798603
3.44150e-06	-0.0023923606018346174
3.44175e-06	-0.0023141125391713696
3.44200e-06	-0.002234053776032501
3.44225e-06	-0.0021524955660735382
3.44250e-06	-0.002069873603807228
3.44275e-06	-0.0019866743059454646
3.44300e-06	-0.001903384624380557
3.44325e-06	-0.0018204912848736859
3.44350e-06	-0.0017384790946003094
3.44375e-06	-0.0016578002427849647
3.44400e-06	-0.00157885931608322
