Time(s)	Current(A)
1.12500e-05	0.0033220964344978393
1.12503e-05	0.0033315669179412393
1.12505e-05	0.003341037401384575
1.12508e-05	0.003350507884827975
1.12510e-05	0.003359978368271375
1.12513e-05	0.003369448851714711
1.12515e-05	0.003378919335158111
1.12518e-05	0.003388389818601511
1.12520e-05	0.003397860302044847
1.12523e-05	0.003407330785488247
1.12525e-05	0.003416801268931647
1.12527e-05	0.003424800721223058
1.12530e-05	0.003432668906862439
1.12533e-05	0.0034405370925018205
1.12535e-05	0.0034484052781411484
1.12538e-05	0.0034562734637805298
1.12540e-05	0.0034602272745229536
1.12542e-05	0.003463831788184094
1.12545e-05	0.003467436301845259
1.12548e-05	0.0034710408155064236
1.12550e-05	0.0034746453291675887
1.12553e-05	0.0034782498428287288
1.12555e-05	0.003481854356489894
1.12558e-05	0.0034854588701510587
1.12560e-05	0.0034890633838121988
1.12563e-05	0.003492667897473364
1.12565e-05	0.0034962724111345287
1.12568e-05	0.0034998769247956687
1.12570e-05	0.003503481438456834
1.12573e-05	0.0035070859521179987
1.12575e-05	0.0035106904657791387
1.12578e-05	0.003514294979440304
1.12580e-05	0.0035178994931014686
1.12583e-05	0.0035215040067626087
1.12585e-05	0.003525108520423774
1.12588e-05	0.0035287130340849386
1.12590e-05	0.003531046612682489
1.12593e-05	0.0035316111645265916
1.12595e-05	0.0035321757163706943
1.12598e-05	0.003532740268214793
1.12600e-05	0.003533304820058896
1.12603e-05	0.0035338693719029987
1.12605e-05	0.0035344339237470975
1.12608e-05	0.0035349984755912002
1.12610e-05	0.003535563027435303
1.12612e-05	0.0035361275792794022
1.12615e-05	0.003536692131123505
1.12618e-05	0.0035372566829676077
1.12620e-05	0.0035378212348117066
1.12623e-05	0.0035383857866558093
1.12625e-05	0.003538950338499912
1.12627e-05	0.003539514890344011
1.12630e-05	0.003540079442188114
1.12633e-05	0.003540643994032217
1.12635e-05	0.0035412085458763195
1.12638e-05	0.0035417730977204184
1.12640e-05	0.003542337649564521
1.12643e-05	0.0035306380666007458
1.12645e-05	0.0035178441003422597
1.12648e-05	0.003505050134083687
1.12650e-05	0.003492256167825114
1.12653e-05	0.003479462201566628
1.12655e-05	0.003466668235308055
1.12658e-05	0.0034538742690494824
1.12660e-05	0.0034410803027909963
1.12663e-05	0.0034282863365324235
1.12665e-05	0.0034154923702738507
1.12668e-05	0.0034026984040153646
1.12670e-05	0.0033899044377567918
1.12673e-05	0.0033582235592875664
1.12675e-05	0.003324857317640241
1.12678e-05	0.0032914910759926897
1.12680e-05	0.0032581248343451384
1.12683e-05	0.003224758592697813
1.12685e-05	0.0031913923510502613
1.12688e-05	0.00315802610940271
1.12690e-05	0.0031246598677553846
1.12693e-05	0.0030912936261078333
1.12695e-05	0.0030579273844602815
1.12697e-05	0.003024561142812956
1.12700e-05	0.002991194901165405
1.12703e-05	0.002951467103766248
1.12705e-05	0.002911171636453674
1.12708e-05	0.0028708761691408273
1.12710e-05	0.0028305807018279804
1.12712e-05	0.0027902852345154066
1.12715e-05	0.0027499897672025597
1.12718e-05	0.002709694299889713
1.12720e-05	0.0026749470891525083
1.12723e-05	0.0026406949740265732
1.12725e-05	0.002606442858900406
1.12728e-05	0.002572190743774239
1.12730e-05	0.0025379386286483044
1.12733e-05	0.0025036865135221373
1.12735e-05	0.0024694343983959702
1.12738e-05	0.0024456219337205855
1.12740e-05	0.002422741045487003
1.12743e-05	0.002399860157253421
1.12745e-05	0.0023879860045564376
1.12748e-05	0.002377094031825856
1.12750e-05	0.0023662020590952742
1.12753e-05	0.002366642586388125
1.12755e-05	0.002368094363061528
1.12758e-05	0.0023695461397349312
1.12760e-05	0.002382912973396901
1.12763e-05	0.002397343040588455
1.12765e-05	0.0024117731077800087
1.12768e-05	0.0024381322686187613
1.12770e-05	0.002465555915540674
1.12773e-05	0.002492979562462587
1.12775e-05	0.0025307789365446513
1.12778e-05	0.002569504182909523
1.12780e-05	0.0026082294292743943
1.12782e-05	0.002660993278576088
1.12785e-05	0.0027150098548577033
1.12788e-05	0.002769026431139319
1.12790e-05	0.002823043007420569
1.12793e-05	0.002877059583702184
1.12795e-05	0.0029310761599838
1.12797e-05	0.0029850927362650497
1.12800e-05	0.003048520174643856
1.12803e-05	0.0031127873861044974
1.12805e-05	0.0031770545975651388
1.12808e-05	0.0032413218090253447
1.12810e-05	0.0033055890204859864
1.12813e-05	0.0033698562319466278
1.12815e-05	0.0034341234434068337
1.12818e-05	0.003491763847489993
1.12820e-05	0.003548812912076553
1.12823e-05	0.003605861976662726
1.12825e-05	0.003662911041249286
1.12828e-05	0.003719960105835846
1.12830e-05	0.0037770091704220194
1.12833e-05	0.0038340582350085794
1.12835e-05	0.0038799587161708654
1.12838e-05	0.003910341376698684
1.12840e-05	0.0039407240372267074
1.12843e-05	0.003971106697754732
1.12845e-05	0.00400148935828255
1.12848e-05	0.004031872018810574
1.12850e-05	0.004062254679338598
1.12853e-05	0.004092637339866416
1.12855e-05	0.004087869432747576
1.12858e-05	0.004079964884135658
1.12860e-05	0.004072060335523794
1.12863e-05	0.004064155786911877
1.12865e-05	0.004056251238299959
1.12867e-05	0.004048346689688094
1.12870e-05	0.004040442141076177
1.12873e-05	0.004032537592464259
1.12875e-05	0.0040246330438523945
1.12878e-05	0.003985584854532624
1.12880e-05	0.003943757579632217
1.12882e-05	0.003901930304732094
1.12885e-05	0.003860103029831687
1.12888e-05	0.0038182757549312806
1.12890e-05	0.003776448480030874
1.12893e-05	0.0037346212051307505
1.12895e-05	0.003692793930230344
1.12898e-05	0.0036509666553299373
1.12900e-05	0.0035957468970518234
1.12903e-05	0.00353933206791459
1.12905e-05	0.0034829172387773563
1.12908e-05	0.0034265024096405052
1.12910e-05	0.0033700875805032712
1.12913e-05	0.0033136727513660377
1.12915e-05	0.0032585536794050426
1.12918e-05	0.0032052381843358326
1.12920e-05	0.0031519226892666222
1.12923e-05	0.003098607194197773
1.12925e-05	0.0030452916991285627
1.12928e-05	0.0029919762040593522
1.12930e-05	0.002938660708990503
1.12933e-05	0.0029010957883744805
1.12935e-05	0.0028649363615727464
1.12938e-05	0.002828776934771257
1.12940e-05	0.002792617507969522
1.12943e-05	0.0027564580811677876
1.12945e-05	0.002720298654366298
1.12948e-05	0.002684139227564564
1.12950e-05	0.0026479798007628293
1.12952e-05	0.0026118203739613397
1.12955e-05	0.002585899300317922
1.12958e-05	0.0025608918404654915
1.12960e-05	0.0025358843806132306
1.12963e-05	0.0025108769207608
1.12965e-05	0.0024858694609083696
1.12967e-05	0.002460862001056108
1.12970e-05	0.0024358545412036777
1.12973e-05	0.002410847081351247
1.12975e-05	0.0023858396214988167
1.12978e-05	0.002369332718380752
1.12980e-05	0.002353584357749326
1.12983e-05	0.0023378359971179003
1.12985e-05	0.002322087636486581
1.12988e-05	0.002306339275855155
1.12990e-05	0.0022905909152237287
1.12993e-05	0.0022748425545924098
1.12995e-05	0.0022590941939609837
1.12998e-05	0.0022433458333295576
1.13000e-05	0.0022275974726982386
1.13003e-05	0.0022118491120668125
1.13005e-05	0.0021961007514353864
1.13008e-05	0.0021803523908040675
1.13010e-05	0.0021646040301726414
1.13013e-05	0.0021488556695412153
1.13015e-05	0.0021331073089098963
1.13018e-05	0.0021173589482784702
1.13020e-05	0.002101610587647044
1.13023e-05	0.0020858622270157248
1.13025e-05	0.002070113866384299
1.13028e-05	0.002054365505752873
1.13030e-05	0.0020386171451215536
1.13033e-05	0.002022868784490128
1.13035e-05	0.002007120423858702
1.13037e-05	0.001996723214492009
1.13040e-05	0.001993774324108861
1.13043e-05	0.0019908254337257132
1.13045e-05	0.0019878765433425853
1.13048e-05	0.0019849276529594374
1.13050e-05	0.0019819787625762896
1.13052e-05	0.0019790298721931616
1.13055e-05	0.0019760809818100138
1.13058e-05	0.001973132091426866
1.13060e-05	0.001970183201043718
1.13063e-05	0.00196723431066059
1.13065e-05	0.0019642854202774423
1.13068e-05	0.0019613365298942944
1.13070e-05	0.0019583876395111665
1.13073e-05	0.0019554387491280186
1.13075e-05	0.0019524898587448705
1.13078e-05	0.0019495409683617426
1.13080e-05	0.0019465920779785947
1.13083e-05	0.0019436431875954469
1.13085e-05	0.001940694297212319
1.13088e-05	0.001937745406829171
1.13090e-05	0.0019347965164460232
1.13093e-05	0.0019318476260628953
1.13095e-05	0.0019288987356797474
1.13098e-05	0.0019259498452965996
1.13100e-05	0.0019279577633962998
1.13103e-05	0.0019304079995646469
1.13105e-05	0.0019328582357329936
1.13108e-05	0.001935308471901324
1.13110e-05	0.001937758708069671
1.13113e-05	0.0019402089442380178
1.13115e-05	0.001942659180406348
1.13118e-05	0.001945109416574695
1.13120e-05	0.0019475596527430419
1.13122e-05	0.0019502051342701505
1.13125e-05	0.0019531223796926895
1.13128e-05	0.0019560396251152284
1.13130e-05	0.0019589568705377478
1.13133e-05	0.0019618741159602867
1.13135e-05	0.0019647913613828256
1.13137e-05	0.0019677086068053446
1.13140e-05	0.001970625852227884
1.13143e-05	0.001973543097650423
1.13145e-05	0.0019764603430729617
1.13148e-05	0.001990664768104755
1.13150e-05	0.0020058763983787043
1.13153e-05	0.0020210880286526535
1.13155e-05	0.0020362996589264994
1.13158e-05	0.002051511289200448
1.13160e-05	0.0020667229194743972
1.13163e-05	0.002081934549748243
1.13165e-05	0.0020971461800221923
1.13168e-05	0.0021123578102961414
1.13170e-05	0.0021275694405699873
1.13173e-05	0.0021427810708439365
1.13175e-05	0.002173110862745511
1.13178e-05	0.0022047897154551534
1.13180e-05	0.0022364685681650104
1.13183e-05	0.002268147420874867
1.13185e-05	0.0022998262735845093
1.13188e-05	0.0023315051262943662
1.13190e-05	0.002363183979004223
1.13193e-05	0.0023948628317138655
1.13195e-05	0.0024265416844237225
1.13198e-05	0.002458220537133579
1.13200e-05	0.0024898993898432214
1.13203e-05	0.0025262573104480766
1.13205e-05	0.002563032765094053
1.13207e-05	0.00259980821973978
1.13210e-05	0.0026365836743857565
1.13213e-05	0.002673359129031733
1.13215e-05	0.0027101345836774604
1.13218e-05	0.002746910038323437
1.13220e-05	0.0027836854929694133
1.13222e-05	0.0028130049968930868
1.13225e-05	0.002841659173169264
1.13228e-05	0.002870313349445441
1.13230e-05	0.0028989675257216183
1.13233e-05	0.002927621701997601
1.13235e-05	0.0029562758782737783
1.13238e-05	0.0029849300545499555
1.13240e-05	0.003013584230825939
1.13243e-05	0.003028752619897102
1.13245e-05	0.00304271761218961
1.13248e-05	0.0030566826044820237
1.13250e-05	0.0030706475967745323
1.13253e-05	0.0030846125890670404
1.13255e-05	0.003098577581359454
1.13258e-05	0.0031125425736519626
1.13260e-05	0.0031265075659444707
1.13263e-05	0.0031404725582368843
1.13265e-05	0.003154437550529393
1.13268e-05	0.003168402542821901
1.13270e-05	0.003182367535114315
1.13273e-05	0.003196332527406823
1.13275e-05	0.003205771477755732
1.13278e-05	0.0032089105867270243
1.13280e-05	0.0032120496956983373
1.13283e-05	0.0032151888046696507
1.13285e-05	0.0032183279136409424
1.13288e-05	0.003221467022612256
1.13290e-05	0.0032246061315835688
1.13292e-05	0.003227745240554861
1.13295e-05	0.003230884349526174
1.13298e-05	0.0032340234584974873
1.13300e-05	0.003237162567468779
1.13303e-05	0.0032403016764400924
1.13305e-05	0.0032434407854114054
1.13307e-05	0.0032465798943826975
1.13310e-05	0.0032461997171419634
1.13313e-05	0.003245505498338107
1.13315e-05	0.003244811279534251
1.13318e-05	0.0032441170607303994
1.13320e-05	0.003243422841926543
1.13323e-05	0.003242728623122687
1.13325e-05	0.0032420344043188353
1.13328e-05	0.0032413401855149794
1.13330e-05	0.0032417816487530157
1.13333e-05	0.0032438038787645823
1.13335e-05	0.0032458261087761624
1.13338e-05	0.003247848338787743
1.13340e-05	0.003249870568799309
1.13343e-05	0.0032518927988108895
1.13345e-05	0.0032539150288224696
1.13348e-05	0.003255937258834036
1.13350e-05	0.0032579594888456163
1.13353e-05	0.0032748850257569083
1.13355e-05	0.003293140451035221
1.13358e-05	0.0033113958763136566
1.13360e-05	0.0033296513015920928
1.13363e-05	0.0033479067268704053
1.13365e-05	0.003366162152148841
1.13368e-05	0.0033844175774272772
1.13370e-05	0.0034026730027055894
1.13373e-05	0.0034209284279840256
1.13375e-05	0.0034391838532624617
1.13377e-05	0.003457439278540774
1.13380e-05	0.003491318943023192
1.13383e-05	0.0035265928278695974
1.13385e-05	0.003561866712715764
1.13388e-05	0.0035971405975621694
1.13390e-05	0.003632414482408575
1.13392e-05	0.0036676883672547415
1.13395e-05	0.003702962252101147
1.13398e-05	0.0037382361369475525
1.13400e-05	0.003773510021793958
1.13403e-05	0.0038087839066401246
1.13405e-05	0.00384405779148653
1.13408e-05	0.0038812807617293163
1.13410e-05	0.003918677657531746
1.13413e-05	0.003956074553334429
1.13415e-05	0.003993471449137113
1.13418e-05	0.004030868344939543
1.13420e-05	0.004068265240742226
1.13423e-05	0.0041056621365449094
1.13425e-05	0.004143059032347339
1.13428e-05	0.004180455928150023
1.13430e-05	0.004203824430427122
1.13433e-05	0.00422594111674794
1.13435e-05	0.004248057803068907
1.13438e-05	0.004270174489389874
1.13440e-05	0.004292291175710691
1.13443e-05	0.004314407862031658
1.13445e-05	0.004336524548352625
1.13448e-05	0.004358641234673443
1.13450e-05	0.00438075792099441
1.13453e-05	0.004377532816114789
1.13455e-05	0.004372046350479066
1.13458e-05	0.004366559884843304
1.13460e-05	0.004361073419207544
1.13462e-05	0.00435558695357182
1.13465e-05	0.00435010048793606
1.13468e-05	0.004344614022300298
1.13470e-05	0.004339127556664575
1.13473e-05	0.004333641091028814
1.13475e-05	0.004328154625393053
1.13477e-05	0.0043126604209992505
1.13480e-05	0.004283236348622894
1.13483e-05	0.004253812276246536
1.13485e-05	0.0042243882038701785
1.13488e-05	0.004194964131494021
1.13490e-05	0.004165540059117664
1.13493e-05	0.004136115986741306
1.13495e-05	0.004106691914365149
1.13498e-05	0.004077267841988791
1.13500e-05	0.004047843769612433
1.13503e-05	0.004018419697236276
1.13505e-05	0.0039834055738561525
1.13508e-05	0.003947892625358732
1.13510e-05	0.003912379676861553
1.13513e-05	0.0038768667283641325
1.13515e-05	0.0038413537798667125
1.13518e-05	0.0038058408313695327
1.13520e-05	0.0037703278828721126
1.13523e-05	0.003734814934374692
1.13525e-05	0.0036993019858775128
1.13528e-05	0.0036637890373800923
1.13530e-05	0.0036335933681574378
1.13533e-05	0.003610798871179979
1.13535e-05	0.003588004374202366
1.13538e-05	0.003565209877224753
1.13540e-05	0.0035424153802472943
1.13543e-05	0.003519620883269681
1.13545e-05	0.003496826386292068
1.13548e-05	0.0034740318893146096
1.13550e-05	0.0034512373923369965
1.13553e-05	0.0034284428953593833
1.13555e-05	0.0034056483983819245
1.13558e-05	0.0033959539660348456
1.13560e-05	0.0033874285107285216
1.13562e-05	0.0033789030554222553
1.13565e-05	0.003370377600115931
1.13568e-05	0.003361852144809607
1.13570e-05	0.0033533266895032824
1.13573e-05	0.003344801234197016
1.13575e-05	0.003336275778890692
1.13578e-05	0.0033277503235843676
1.13580e-05	0.0033192248682781013
1.13583e-05	0.003310699412971777
1.13585e-05	0.003302173957665453
1.13588e-05	0.0032936485023591865
1.13590e-05	0.003285123047052862
1.13593e-05	0.0032798000873162894
1.13595e-05	0.003278934712014333
1.13598e-05	0.0032780693367123713
1.13600e-05	0.003277203961410409
1.13603e-05	0.0032763385861084527
1.13605e-05	0.003275473210806491
1.13608e-05	0.0032746078355045285
1.13610e-05	0.0032737424602025727
1.13613e-05	0.0032728770849006104
1.13615e-05	0.0032720117095986485
1.13618e-05	0.0032711463342966923
1.13620e-05	0.0032702809589947304
1.13623e-05	0.003269415583692768
1.13625e-05	0.003268550208390812
1.13628e-05	0.00326768483308885
1.13630e-05	0.003271091102670843
1.13633e-05	0.0032748785501277816
1.13635e-05	0.0032786659975847458
1.13638e-05	0.00328245344504171
1.13640e-05	0.003286240892498648
1.13643e-05	0.0032900283399556122
1.13645e-05	0.0032938157874125764
1.13647e-05	0.003297603234869515
1.13650e-05	0.003301390682326479
1.13653e-05	0.0033051781297834433
1.13655e-05	0.0033089655772404075
1.13658e-05	0.0033127530246973456
1.13660e-05	0.0033165404721543098
1.13663e-05	0.003326198592734354
1.13665e-05	0.0033440281597902537
1.13668e-05	0.003361857726846274
1.13670e-05	0.003379687293902294
1.13673e-05	0.0033975168609581934
1.13675e-05	0.0034153464280142136
1.13678e-05	0.003433175995070234
1.13680e-05	0.003451005562126133
1.13683e-05	0.0034688351291821537
1.13685e-05	0.0034866646962381734
1.13688e-05	0.003504494263294073
1.13690e-05	0.0035223238303500933
1.13693e-05	0.0035401533974061135
1.13695e-05	0.0035579829644620128
1.13698e-05	0.003582023511555638
1.13700e-05	0.0036066182920272277
1.13703e-05	0.0036312130724986506
1.13705e-05	0.0036558078529702405
1.13708e-05	0.0036804026334418304
1.13710e-05	0.0037049974139132537
1.13713e-05	0.0037295921943848436
1.13715e-05	0.003754186974856433
1.13718e-05	0.0037787817553278564
1.13720e-05	0.0037985959490833194
1.13723e-05	0.0038179835498198048
1.13725e-05	0.003837371150556159
1.13728e-05	0.003856758751292645
1.13730e-05	0.0038761463520291303
1.13732e-05	0.0038955339527654846
1.13735e-05	0.00391492155350197
1.13738e-05	0.003934309154238456
1.13740e-05	0.0039536967549749415
1.13743e-05	0.003949014467723829
1.13745e-05	0.003942184317292968
1.13748e-05	0.003935354166862107
1.13750e-05	0.003928524016431292
1.13753e-05	0.003921693866000431
1.13755e-05	0.00391486371556957
1.13758e-05	0.003908033565138755
1.13760e-05	0.0039012034147078937
1.13763e-05	0.0038943732642770326
1.13765e-05	0.003887543113846218
1.13768e-05	0.0038807129634153567
1.13770e-05	0.0038419730311226147
1.13773e-05	0.0038003856470438806
1.13775e-05	0.003758798262964865
1.13778e-05	0.003717210878885849
1.13780e-05	0.003675623494807115
1.13783e-05	0.0036340361107280988
1.13785e-05	0.0035924487266490827
1.13788e-05	0.0035508613425703486
1.13790e-05	0.0035092739584913326
1.13793e-05	0.0034676865744123165
1.13795e-05	0.0034260991903335824
1.13798e-05	0.003370190114207589
1.13800e-05	0.0033130030497898182
1.13803e-05	0.0032558159853724347
1.13805e-05	0.003198628920954664
1.13808e-05	0.003141441856536893
1.13810e-05	0.0030842547921195096
1.13813e-05	0.0030270677277017388
1.13815e-05	0.002973252301291109
1.13817e-05	0.002919737741139094
1.13820e-05	0.0028662231809867167
1.13823e-05	0.0028127086208343394
1.13825e-05	0.0027591940606823246
1.13828e-05	0.0027056795005299472
1.13830e-05	0.00265216494037757
1.13833e-05	0.002609548802420196
1.13835e-05	0.0025679051791578345
1.13838e-05	0.0025262615558951907
1.13840e-05	0.0024949318129835695
1.13843e-05	0.00246452242349786
1.13845e-05	0.0024341130340119446
1.13848e-05	0.0024148825963187575
1.13850e-05	0.0023966497062245613
1.13853e-05	0.002378416816130241
1.13855e-05	0.0023719517049758006
1.13858e-05	0.0023665366850861404
1.13860e-05	0.0023611216651964434
1.13863e-05	0.0023673491630990377
1.13865e-05	0.0023746155746567983
1.13868e-05	0.0023818819862146084
1.13870e-05	0.002399894564462018
1.13873e-05	0.0024188660709681367
1.13875e-05	0.0024378375774743843
1.13878e-05	0.002466545537516268
1.13880e-05	0.0024961223246202768
1.13883e-05	0.002525699111724486
1.13885e-05	0.0025674125090450603
1.13888e-05	0.002610208910085665
1.13890e-05	0.0026530053111265594
1.13893e-05	0.002695801712167454
1.13895e-05	0.002738598113208059
1.13898e-05	0.0027813945142489533
1.13900e-05	0.002824190915289848
1.13902e-05	0.002874634231516368
1.13905e-05	0.002925759916003336
1.13908e-05	0.0029768856004903045
1.13910e-05	0.003028011284976926
1.13913e-05	0.0030791369694638943
1.13915e-05	0.003130262653950862
1.13918e-05	0.0031813883384378305
1.13920e-05	0.003224768032626593
1.13923e-05	0.0032674565176424343
1.13925e-05	0.003310145002658275
1.13928e-05	0.003352833487673827
1.13930e-05	0.0033955219726896683
1.13933e-05	0.0034382104577055095
1.13935e-05	0.003480898942721061
1.13938e-05	0.0035235874277369022
1.13940e-05	0.003561203558462359
1.13943e-05	0.0035917594303800726
1.13945e-05	0.0036223153022979936
1.13948e-05	0.0036528711742159145
1.13950e-05	0.0036834270461336286
1.13953e-05	0.0037139829180515495
1.13955e-05	0.0037445387899694704
1.13958e-05	0.0037750946618871845
1.13960e-05	0.0038056505338051054
1.13963e-05	0.003834602264786721
1.13965e-05	0.003863410851136113
1.13968e-05	0.0038922194374856993
1.13970e-05	0.003921028023835286
1.13973e-05	0.003949836610184678
1.13975e-05	0.003978645196534264
1.13978e-05	0.004007453782883851
1.13980e-05	0.004036262369233243
1.13983e-05	0.0040650709555828295
1.13985e-05	0.004093879541932416
1.13987e-05	0.004122688128281807
