Time(s)	Current(A)
8.75000e-06	0.009749509314414137
8.75025e-06	0.0097823021135887
8.75050e-06	0.009815094912763486
8.75075e-06	0.009851733698494073
8.75100e-06	0.009890182730105095
8.75125e-06	0.00992863176171638
8.75150e-06	0.00996981140156506
8.75175e-06	0.010012276296118084
8.75200e-06	0.010054741190670822
8.75225e-06	0.010098643369661714
8.75250e-06	0.010143222056018258
8.75275e-06	0.0101878007423745
8.75300e-06	0.010232390827373965
8.75325e-06	0.010276986277536853
8.75350e-06	0.010321581727699439
8.75375e-06	0.010365108555088563
8.75400e-06	0.010408132398406787
8.75425e-06	0.010449484757392085
8.75450e-06	0.010490050374774611
8.75475e-06	0.01052746384521779
8.75500e-06	0.010563393649264495
8.75525e-06	0.010599323453311445
8.75550e-06	0.010627956542744817
8.75575e-06	0.010653155182425617
8.75600e-06	0.010678353822106587
8.75625e-06	0.010703552461787558
8.75650e-06	0.010728751101468358
8.75675e-06	0.010753949741149328
8.75700e-06	0.010769054354809845
8.75725e-06	0.010779407867871776
8.75750e-06	0.010789761380933776
8.75775e-06	0.010800114893995776
8.75800e-06	0.010810468407057707
8.75825e-06	0.010820821920119707
8.75850e-06	0.010821477769801056
8.75875e-06	0.010817569080595616
8.75900e-06	0.010813660391390149
8.75925e-06	0.010809751702184681
8.75950e-06	0.01080584301297924
8.75975e-06	0.010801934323773774
8.76000e-06	0.010796016021782382
8.76025e-06	0.010780940058505283
8.76050e-06	0.010765864095228287
8.76075e-06	0.010750788131951187
8.76100e-06	0.010735712168674088
8.76125e-06	0.010720636205397092
8.76150e-06	0.010705560242119994
8.76175e-06	0.010687266817030323
8.76200e-06	0.010667458982852247
8.76225e-06	0.010646905804078708
8.76250e-06	0.010626001803230176
8.76275e-06	0.010604759959270823
8.76300e-06	0.010583359097828733
8.76325e-06	0.01056201522960124
8.76350e-06	0.01054069818719101
8.76375e-06	0.01051990579898388
8.76400e-06	0.010499360357326576
8.76425e-06	0.010479877522492628
8.76450e-06	0.010460894840115528
8.76475e-06	0.010443008643861431
8.76500e-06	0.0104265251076383
8.76525e-06	0.010412044539785198
8.76550e-06	0.010398310325777343
8.76575e-06	0.010387515695126697
8.76600e-06	0.010378104680510175
8.76625e-06	0.010373433601574064
8.76650e-06	0.010370993536428582
8.76675e-06	0.010368553471283085
8.76700e-06	0.010373806603546658
8.76725e-06	0.01038268080383109
8.76750e-06	0.010391555004115583
8.76775e-06	0.010400429204400076
8.76800e-06	0.01040930340468451
8.76825e-06	0.010428062381456493
8.76850e-06	0.01045147396833721
8.76875e-06	0.010474885555217925
8.76900e-06	0.010498297142098482
8.76925e-06	0.010521708728979198
8.76950e-06	0.010551217228648635
8.76975e-06	0.010583595450067127
8.77000e-06	0.010615973671485836
8.77025e-06	0.010636696341521017
8.77050e-06	0.004173132074100747
8.77075e-06	-0.003362062934127179
8.77100e-06	-0.0020099304648948436
8.77125e-06	9.733531052119246e-05
8.77150e-06	0.005201980317156167
8.77175e-06	0.012009162633080921
8.77200e-06	0.01204544706109673
8.77225e-06	0.011196185856326642
8.77250e-06	0.008119617522819233
8.77275e-06	0.002985908294327024
8.77300e-06	0.0031355322113151753
8.77325e-06	0.005183158535606327
8.77350e-06	0.007809889457656627
8.77375e-06	0.012579338038558357
8.77400e-06	0.012794714549846112
8.77425e-06	0.01213033791944701
8.77450e-06	0.010413960644061894
8.77475e-06	0.008038555083518703
8.77500e-06	0.007396917647038414
8.77525e-06	0.00845612719488163
8.77550e-06	0.010163801626271902
8.77575e-06	0.012145488414019722
8.77600e-06	0.012940209692969232
8.77625e-06	0.012568590006678851
8.77650e-06	0.01147973763849534
8.77675e-06	0.009978084792506298
8.77700e-06	0.009562974217529845
8.77725e-06	0.010213590264727618
8.77750e-06	0.011270575852963125
8.77775e-06	0.01249928673397948
8.77800e-06	0.012984545114089432
8.77825e-06	0.01273930184131719
8.77850e-06	0.01204490504529693
8.77875e-06	0.01109206530197448
8.77900e-06	0.010819943361470808
8.77925e-06	0.01121543444706278
8.77950e-06	0.011865482661427628
8.77975e-06	0.012623099225931012
8.78000e-06	0.012915047075347505
8.78025e-06	0.012749501104811552
8.78050e-06	0.012302753019019326
8.78075e-06	0.011694308599158808
8.78100e-06	0.011512471571924997
8.78125e-06	0.011749026324721953
8.78150e-06	0.012145239295034761
8.78175e-06	0.012609060131171704
8.78200e-06	0.0127814609458638
8.78225e-06	0.012667624450387537
8.78250e-06	0.012378039095468682
8.78275e-06	0.011987615005322633
8.78300e-06	0.011864896872763571
8.78325e-06	0.012004754033171144
8.78350e-06	0.012245141982986908
8.78375e-06	0.012528436091665372
8.78400e-06	0.01262979009378817
8.78425e-06	0.012552509198235825
8.78450e-06	0.012365861267297594
8.78475e-06	0.012116819709299332
8.78500e-06	0.012036280962641742
8.78525e-06	0.01212106055010031
8.78550e-06	0.012269602252140506
8.78575e-06	0.012444920306947634
8.78600e-06	0.012504440699592063
8.78625e-06	0.012449214700906349
8.78650e-06	0.012322600404977749
8.78675e-06	0.012154189887134752
8.78700e-06	0.012088778812696804
8.78725e-06	0.012124526792013694
8.78750e-06	0.012197978835835219
8.78775e-06	0.012286128540036632
8.78800e-06	0.012299836432938435
8.78825e-06	0.01223993284072058
8.78850e-06	0.012133749116749377
8.78875e-06	0.011999987180310309
8.78900e-06	0.011929513178890724
8.78925e-06	0.011921332930284098
8.78950e-06	0.011935860077376292
8.78975e-06	0.01195884730369988
8.79000e-06	0.011934625193041157
8.79025e-06	0.011863883163182324
8.79050e-06	0.011763910069342784
8.79075e-06	0.011646589767172246
8.79100e-06	0.011569003491496945
8.79125e-06	0.011530691440185134
8.79150e-06	0.011507020278950796
8.79175e-06	0.01148922988008395
8.79200e-06	0.011442614122057224
8.79225e-06	0.011367775404236285
8.79250e-06	0.01127570925305048
8.79275e-06	0.011174027556549181
8.79300e-06	0.011098651493570253
8.79325e-06	0.011049455463956222
8.79350e-06	0.01101117257800457
8.79375e-06	0.010978481438748806
8.79400e-06	0.01092980797374153
8.79425e-06	0.010865696112492055
8.79450e-06	0.01079320178742904
8.79475e-06	0.010717257748235625
8.79500e-06	0.01066053083665632
8.79525e-06	0.01062310474488487
8.79550e-06	0.01059560913011073
8.79575e-06	0.01057512810674499
8.79600e-06	0.010548713966990496
8.79625e-06	0.010516911905060601
8.79650e-06	0.010483976774024763
8.79675e-06	0.010452767367262071
8.79700e-06	0.01043724806286
8.79725e-06	0.010437238281621528
8.79750e-06	0.010446632178750982
8.79775e-06	0.010463371632679012
8.79800e-06	0.010479111584728128
8.79825e-06	0.010493961984053123
8.79850e-06	0.010510354943219825
8.79875e-06	0.010529847554274217
8.79900e-06	0.010560954409875199
8.79925e-06	0.010603328010684627
8.79950e-06	0.010652909924792947
8.79975e-06	0.010708252904676994
8.80000e-06	0.010763671254479489
8.80025e-06	0.010819223792751208
8.80050e-06	0.010876128272233393
8.80075e-06	0.010938710520277986
8.80100e-06	0.011001368040452967
8.80125e-06	0.011074256052757084
8.80150e-06	0.011151158722730103
8.80175e-06	0.01123038590783285
8.80200e-06	0.01130964332157724
8.80225e-06	0.011387249114231815
8.80250e-06	0.011464807206535239
8.80275e-06	0.011542364956580967
8.80300e-06	0.01161992270662722
8.80325e-06	0.011701069538675574
8.80350e-06	0.011781856023373413
8.80375e-06	0.011862637080849864
8.80400e-06	0.011939552407494405
8.80425e-06	0.012012591950849806
8.80450e-06	0.012080000322133116
8.80475e-06	0.012147334478616528
8.80500e-06	0.012209255600925527
8.80525e-06	0.012271104733105321
8.80550e-06	0.012322625029552172
8.80575e-06	0.012374007958638857
8.80600e-06	0.012425390887725193
8.80625e-06	0.012466649940178829
8.80650e-06	0.012496863036315578
8.80675e-06	0.01252693101846753
8.80700e-06	0.012556999000619684
8.80725e-06	0.01258706698277184
8.80750e-06	0.012599895652800666
8.80775e-06	0.012612495050251351
8.80800e-06	0.012625094447702037
8.80825e-06	0.012637693845152637
8.80850e-06	0.012635116312278618
8.80875e-06	0.012632336935275094
8.80900e-06	0.01262955755827159
8.80925e-06	0.012616478143973426
8.80950e-06	0.012603261745317028
8.80975e-06	0.01259004534666072
8.81000e-06	0.01256810118291068
8.81025e-06	0.012546040945085763
8.81050e-06	0.012518144887498792
8.81075e-06	0.012490171216986354
8.81100e-06	0.012458006454558704
8.81125e-06	0.012425785953106236
8.81150e-06	0.012389908356317912
8.81175e-06	0.012353982122340833
8.81200e-06	0.012314935087355419
8.81225e-06	0.012275846547576496
8.81250e-06	0.012235203811212106
8.81275e-06	0.012193920932163014
8.81300e-06	0.012152573749449787
8.81325e-06	0.01211139401624065
8.81350e-06	0.012070479382270401
8.81375e-06	0.012030085697008627
8.81400e-06	0.011990402004375131
8.81425e-06	0.011951793817657371
8.81450e-06	0.011915501234322438
8.81475e-06	0.01187923925855721
8.81500e-06	0.011848659153454035
8.81525e-06	0.011818154613845286
8.81550e-06	0.01178765007423633
8.81575e-06	0.011762446438710708
8.81600e-06	0.011737313302051017
8.81625e-06	0.011713569690053476
8.81650e-06	0.011689844557906006
8.81675e-06	0.011666119425758695
8.81700e-06	0.011645841757759347
8.81725e-06	0.011625609938979044
8.81750e-06	0.011605378120198878
8.81775e-06	0.011585146301418575
8.81800e-06	0.011567170870938977
8.81825e-06	0.011549225449079476
8.81850e-06	0.011531280027219854
8.81875e-06	0.011513334605360232
8.81900e-06	0.011497078625519016
8.81925e-06	0.011480845114249922
8.81950e-06	0.01146461160298083
8.81975e-06	0.011448378091711847
8.82000e-06	0.011432144580442755
8.82025e-06	0.01141712097123435
8.82050e-06	0.011402113453002481
8.82075e-06	0.011387105934770714
8.82100e-06	0.011372098416538844
8.82125e-06	0.011357090898306976
8.82150e-06	0.011344071115707701
8.82175e-06	0.011331077768807953
8.82200e-06	0.011318084421908205
8.82225e-06	0.011305091075008544
8.82250e-06	0.011292097728108796
8.82275e-06	0.011279104381209049
8.82300e-06	0.01126611103430939
8.82325e-06	0.011253117687409641
8.82350e-06	0.011243556026789874
8.82375e-06	0.011234040005553161
8.82400e-06	0.011224523984316384
8.82425e-06	0.011215007963079606
8.82450e-06	0.011205491941842893
8.82475e-06	0.011195975920606116
8.82500e-06	0.011186459899369339
8.82525e-06	0.011176943878132626
8.82550e-06	0.011173768138340553
8.82575e-06	0.011170676720514408
8.82600e-06	0.011167585302688283
8.82625e-06	0.011164493884862138
8.82650e-06	0.011161402467035992
8.82675e-06	0.011158311049209868
8.82700e-06	0.011159643300964627
8.82725e-06	0.011165637722896046
8.82750e-06	0.011171632144827425
8.82775e-06	0.011177626566758844
8.82800e-06	0.011183620988690265
8.82825e-06	0.011189615410621644
8.82850e-06	0.011195609832553063
8.82875e-06	0.011212138931205035
8.82900e-06	0.011228808134781323
8.82925e-06	0.0112454773383575
8.82950e-06	0.011262146541933788
8.82975e-06	0.011278815745510077
8.83000e-06	0.011295484949086254
8.83025e-06	0.011312154152662542
8.83050e-06	0.01132882335623883
8.83075e-06	0.011345492559815006
8.83100e-06	0.011365634619764716
8.83125e-06	0.011389436773923007
8.83150e-06	0.011413238928081137
8.83175e-06	0.011437041082239427
8.83200e-06	0.01146084323639772
8.83225e-06	0.011484645390555848
8.83250e-06	0.01150844754471414
8.83275e-06	0.01153224969887243
8.83300e-06	0.01155605185303056
8.83325e-06	0.011579854007188852
8.83350e-06	0.011602395212660543
8.83375e-06	0.011624919648265713
8.83400e-06	0.011647444083871035
8.83425e-06	0.011669968519476355
8.83450e-06	0.011692492955081525
8.83475e-06	0.011715017390686847
8.83500e-06	0.011737541826292167
8.83525e-06	0.011752525972847871
8.83550e-06	0.011767409838051046
8.83575e-06	0.011782293703254223
8.83600e-06	0.0117971775684573
8.83625e-06	0.011812061433660474
8.83650e-06	0.011826945298863651
8.83675e-06	0.011841829164066727
8.83700e-06	0.011845204271100963
8.83725e-06	0.01184842631850705
8.83750e-06	0.011851648365913138
8.83775e-06	0.011854870413319202
8.83800e-06	0.011858092460725288
8.83825e-06	0.011861314508131377
8.83850e-06	0.011864536555537441
8.83875e-06	0.011867758602943528
8.83900e-06	0.011865491278794965
8.83925e-06	0.011857438625545435
8.83950e-06	0.01184938597229585
8.83975e-06	0.011841333319046266
8.84000e-06	0.011833280665796735
8.84025e-06	0.01182522801254715
8.84050e-06	0.011817175359297565
8.84075e-06	0.011809122706048034
8.84100e-06	0.011801070052798448
8.84125e-06	0.011786701345357137
8.84150e-06	0.011772248638157411
8.84175e-06	0.011757795930957589
8.84200e-06	0.011743343223757766
8.84225e-06	0.01172889051655804
8.84250e-06	0.011714437809358217
8.84275e-06	0.011699985102158394
8.84300e-06	0.011685532394958668
8.84325e-06	0.011671079687758846
8.84350e-06	0.011656626980559023
8.84375e-06	0.011644018296998317
8.84400e-06	0.011633353056965985
8.84425e-06	0.011622687816933652
8.84450e-06	0.011612022576901393
8.84475e-06	0.01160135733686906
8.84500e-06	0.011590692096836728
8.84525e-06	0.011580026856804468
8.84550e-06	0.011569361616772135
8.84575e-06	0.011558696376739805
8.84600e-06	0.011548031136707472
8.84625e-06	0.011537365896675212
8.84650e-06	0.011538243197495824
8.84675e-06	0.011539274007234883
8.84700e-06	0.011540304816973934
8.84725e-06	0.011541335626712992
8.84750e-06	0.01154236643645205
8.84775e-06	0.011543397246191103
8.84800e-06	0.01154442805593016
8.84825e-06	0.011545458865669218
8.84850e-06	0.011551756489012696
8.84875e-06	0.011563604884374336
8.84900e-06	0.011575453279735975
8.84925e-06	0.011587301675097533
8.84950e-06	0.011599150070459172
8.84975e-06	0.01161099846582081
8.85000e-06	0.01162284686118237
8.85025e-06	0.011634695256544007
8.85050e-06	0.011646543651905646
8.85075e-06	0.011665391900035673
8.85100e-06	0.01168433324203849
8.85125e-06	0.011703274584041305
8.85150e-06	0.011722215926043993
8.85175e-06	0.011741157268046807
8.85200e-06	0.011760098610049624
8.85225e-06	0.011779039952052312
8.85250e-06	0.011797981294055127
8.85275e-06	0.011816922636057943
8.85300e-06	0.011836171876260446
8.85325e-06	0.011855425211325758
8.85350e-06	0.01187467854639107
8.85375e-06	0.011893931881456252
8.85400e-06	0.011913185216521563
8.85425e-06	0.011932438551586875
8.85450e-06	0.011951691886652186
8.85475e-06	0.011970945221717369
8.85500e-06	0.01199019855678268
8.85525e-06	0.012005215968322285
8.85550e-06	0.012020177044601664
8.85575e-06	0.012035138120881146
8.85600e-06	0.012041261599726981
8.85625e-06	0.012047267543790213
8.85650e-06	0.012053273487853487
8.85675e-06	0.01205927943191676
8.85700e-06	0.012065285375979992
8.85725e-06	0.012071291320043264
8.85750e-06	0.01206350694796835
8.85775e-06	0.012055539172901692
8.85800e-06	0.01204757139783498
8.85825e-06	0.012039603622768269
8.85850e-06	0.012031635847701611
8.85875e-06	0.0120236680726349
8.85900e-06	0.012001511945868116
8.85925e-06	0.011979167122473764
8.85950e-06	0.011956822299079262
8.85975e-06	0.011934477475684758
8.86000e-06	0.011912132652290406
8.86025e-06	0.011889787828895904
8.86050e-06	0.011867443005501402
8.86075e-06	0.011834856660792455
8.86100e-06	0.011802134109949012
8.86125e-06	0.01176941155910557
8.86150e-06	0.011736689008262347
8.86175e-06	0.011703966457418905
8.86200e-06	0.011671243906575462
8.86225e-06	0.01163852135573224
8.86250e-06	0.011602886092295376
8.86275e-06	0.011567212091515589
8.86300e-06	0.011531538090735802
8.86325e-06	0.011496455223863226
8.86350e-06	0.011461380218719345
8.86375e-06	0.011427756471060469
8.86400e-06	0.011394152024262133
8.86425e-06	0.011363514276187646
8.86450e-06	0.011332915983439513
8.86475e-06	0.011302317690691586
8.86500e-06	0.011283286824524539
8.86525e-06	0.011264409798242666
8.86550e-06	0.011245532771960923
8.86575e-06	0.01122665574567905
8.86600e-06	0.011207778719397179
8.86625e-06	0.011188901693115434
8.86650e-06	0.011170024666833561
8.86675e-06	0.01115114764055169
8.86700e-06	0.011132270614269945
8.86725e-06	0.011120932636046948
8.86750e-06	0.01111754017102646
8.86775e-06	0.011114147706005998
8.86800e-06	0.011110755240985513
8.86825e-06	0.011107362775965027
8.86850e-06	0.011103970310944565
8.86875e-06	0.01110057784592408
8.86900e-06	0.011097185380903592
8.86925e-06	0.01109379291588313
8.86950e-06	0.011090400450862644
8.86975e-06	0.011098202055478292
8.87000e-06	0.011106152534554261
8.87025e-06	0.011114103013630283
8.87050e-06	0.011122053492706304
8.87075e-06	0.011130003971782274
8.87100e-06	0.011137954450858295
8.87125e-06	0.011145904929934317
8.87150e-06	0.01115385540901034
8.87175e-06	0.011161805888086308
8.87200e-06	0.011169756367162331
8.87225e-06	0.011179783245961533
8.87250e-06	0.011191998472850113
8.87275e-06	0.011204213699738778
8.87300e-06	0.011216428926627444
8.87325e-06	0.011228644153516024
8.87350e-06	0.01124085938040469
8.87375e-06	0.011253074607293353
8.87400e-06	0.011265289834181935
8.87425e-06	0.0112775050610706
8.87450e-06	0.011289720287959264
8.87475e-06	0.011301935514847846
8.87500e-06	0.011312885601820127
8.87525e-06	0.011323818863184825
8.87550e-06	0.011334265461573992
8.87575e-06	0.011344705587635432
8.87600e-06	0.011359146552095672
8.87625e-06	0.011373640725324314
8.87650e-06	0.011395722061654795
8.87675e-06	0.011417904302736986
8.87700e-06	0.011440086543819027
8.87725e-06	0.011469926105901161
8.87750e-06	0.011499867505793333
8.87775e-06	0.0115298089056853
8.87800e-06	0.011574865503071734
8.87825e-06	0.011620123123585173
8.87850e-06	0.011665380744098305
8.87875e-06	0.011710638364611744
8.87900e-06	0.011755895985125183
8.87925e-06	0.011801153605638316
8.87950e-06	0.011864056397112091
8.87975e-06	0.011927193858853855
8.88000e-06	0.011990331320595621
8.88025e-06	0.012053468782336959
8.88050e-06	0.012116606244078724
8.88075e-06	0.012179743705820489
8.88100e-06	0.012252585015899183
8.88125e-06	0.012325555381383737
8.88150e-06	0.012398525746868293
8.88175e-06	0.012474608794650354
8.88200e-06	0.012550733239254274
8.88225e-06	0.012626857683858194
8.88250e-06	0.012704201772972254
8.88275e-06	0.012781562082632689
8.88300e-06	0.012858922392293123
8.88325e-06	0.012933753341219574
8.88350e-06	0.013008550651154667
8.88375e-06	0.01308334796108976
8.88400e-06	0.013152751078384607
8.88425e-06	0.013222082456129281
8.88450e-06	0.013291413833873956
8.88475e-06	0.013351969040643155
8.88500e-06	0.013412407529563686
8.88525e-06	0.013472846018484214
8.88550e-06	0.0135146225064699
8.88575e-06	0.01355615080095372
8.88600e-06	0.013597679095437541
8.88625e-06	0.01363920738992108
8.88650e-06	0.0136807356844049
8.88675e-06	0.013722263978888722
8.88700e-06	0.013737415048195306
8.88725e-06	0.013752215316110254
8.88750e-06	0.013767015584025202
8.88775e-06	0.013781815851940049
8.88800e-06	0.013796616119854997
8.88825e-06	0.013811416387769945
8.88850e-06	0.013799624011184636
8.88875e-06	0.013787477968258735
8.88900e-06	0.013775331925332753
8.88925e-06	0.01376318588240677
8.88950e-06	0.01375103983948087
8.88975e-06	0.013738893796554887
8.89000e-06	0.013726747753628905
8.89025e-06	0.013693413456466026
8.89050e-06	0.01365979736813525
8.89075e-06	0.01362618127980447
8.89100e-06	0.01359256519147392
8.89125e-06	0.013558949103143142
8.89150e-06	0.013525333014812364
8.89175e-06	0.013491716926481812
8.89200e-06	0.013449834920362147
8.89225e-06	0.013407842982456597
8.89250e-06	0.013364293631120162
8.89275e-06	0.013320723567111926
8.89300e-06	0.013276664082830986
8.89325e-06	0.013232598089552065
8.89350e-06	0.013189135944383954
8.89375e-06	0.013145681830036258
8.89400e-06	0.013104174827139955
8.89425e-06	0.013062693719666582
8.89450e-06	0.013025619998761617
8.89475e-06	0.012988604893474634
8.89500e-06	0.0129515897881874
8.89525e-06	0.012920780133681656
8.89550e-06	0.012890053007977575
8.89575e-06	0.012863228836616917
8.89600e-06	0.012836456572225733
8.89625e-06	0.012809590712909344
8.89650e-06	0.012782723608835977
8.89675e-06	0.012755856504762613
8.89700e-06	0.012730215555485093
8.89725e-06	0.012704590913336653
8.89750e-06	0.012678966271188039
8.89775e-06	0.012653341629039425
8.89800e-06	0.012627052018689511
8.89825e-06	0.012600753564658163
8.89850e-06	0.012574455110626815
8.89875e-06	0.012548156656595645
8.89900e-06	0.012520090461658796
8.89925e-06	0.012492000756820129
8.89950e-06	0.012463911051981653
8.89975e-06	0.012435821347142988
8.90000e-06	0.01240773164230432
8.90025e-06	0.012378776530782627
8.90050e-06	0.012348909354477463
8.90075e-06	0.0123190421781723
8.90100e-06	0.012289175001867337
8.90125e-06	0.012259307825562175
8.90150e-06	0.01222944064925701
8.90175e-06	0.012200702566411599
