Time(s)	Current(A)
2.00000e-06	0.006220769594814544
2.00025e-06	0.006216605589495273
2.00050e-06	0.006212441584175995
2.00075e-06	0.006208277578856717
2.00100e-06	0.006204113573537445
2.00125e-06	0.006199949568218167
2.00150e-06	0.006195785562898889
2.00175e-06	0.006191621557579617
2.00200e-06	0.0061874575522603385
2.00225e-06	0.0061832935469410604
2.00250e-06	0.0061791295416217815
2.00275e-06	0.00617496553630251
2.00300e-06	0.006170801530983232
2.00325e-06	0.006166637525663953
2.00350e-06	0.006162473520344682
2.00375e-06	0.0061542471952496115
2.00400e-06	0.0061418535424777
2.00425e-06	0.006129459889705788
2.00450e-06	0.006117066236933897
2.00475e-06	0.0061046725841619855
2.00500e-06	0.006092278931390073
2.00525e-06	0.0060798852786181825
2.00550e-06	0.006067491625846271
2.00575e-06	0.0060550979730743595
2.00600e-06	0.006042704320302468
2.00625e-06	0.0060303106675305565
2.00650e-06	0.006017917014758645
2.00675e-06	0.006008236646133
2.00700e-06	0.0060013396980015885
2.00725e-06	0.005994442749870165
2.00750e-06	0.005987545801738742
2.00775e-06	0.0059806488536073305
2.00800e-06	0.005973751905475907
2.00825e-06	0.005966854957344484
2.00850e-06	0.005959958009213061
2.00875e-06	0.005953061061081649
2.00900e-06	0.005946164112950226
2.00925e-06	0.005939267164818803
2.00950e-06	0.005932370216687391
2.00975e-06	0.005934932460212432
2.01000e-06	0.005947198408361307
2.01025e-06	0.005959464356510162
2.01050e-06	0.005971730304659038
2.01075e-06	0.005983996252807914
2.01100e-06	0.00599626220095679
2.01125e-06	0.0060085281491056445
2.01150e-06	0.00602079409725452
2.01175e-06	0.006033060045403396
2.01200e-06	0.006045325993552251
2.01225e-06	0.006057591941701127
2.01250e-06	0.006069857889850002
2.01275e-06	0.006082123837998857
2.01300e-06	0.006101084311153492
2.01325e-06	0.006126912357734416
2.01350e-06	0.006152740404315339
2.01375e-06	0.0061785684508962185
2.01400e-06	0.006204396497477142
2.01425e-06	0.006230224544058065
2.01450e-06	0.006256052590638945
2.01475e-06	0.006281880637219867
2.01500e-06	0.006307708683800791
2.01525e-06	0.006333536730381714
2.01550e-06	0.006359364776962593
2.01575e-06	0.006385192823543517
2.01600e-06	0.006411020870124439
2.01625e-06	0.006433530945251914
2.01650e-06	0.006452637281867222
2.01675e-06	0.00647174361848253
2.01700e-06	0.006490849955097806
2.01725e-06	0.0065099562917131145
2.01750e-06	0.006529062628328423
2.01775e-06	0.006548168964943731
2.01800e-06	0.006567275301559007
2.01825e-06	0.006586381638174315
2.01850e-06	0.006605487974789623
2.01875e-06	0.006624594311404899
2.01900e-06	0.006630989192529068
2.01925e-06	0.006624344036627807
2.01950e-06	0.0066176988807265455
2.01975e-06	0.0066110537248252966
2.02000e-06	0.0066044085689240355
2.02025e-06	0.006597763413022775
2.02050e-06	0.0065911182571215254
2.02075e-06	0.006584473101220265
2.02100e-06	0.006577827945319004
2.02125e-06	0.006571182789417755
2.02150e-06	0.006564537633516494
2.02175e-06	0.006545353140340746
2.02200e-06	0.00651330517748218
2.02225e-06	0.0064812572146236685
2.02250e-06	0.006449209251765103
2.02275e-06	0.006417161288906536
2.02300e-06	0.006385113326048025
2.02325e-06	0.006353065363189459
2.02350e-06	0.0063210174003308925
2.02375e-06	0.006288969437472327
2.02400e-06	0.006256921474613816
2.02425e-06	0.006224873511755249
2.02450e-06	0.006184828759923538
2.02475e-06	0.006144732662164771
2.02500e-06	0.006104636564405936
2.02525e-06	0.006064540466647101
2.02550e-06	0.006024444368888334
2.02575e-06	0.0059843482711294995
2.02600e-06	0.005944252173370665
2.02625e-06	0.00590415607561183
2.02650e-06	0.005864059977853063
2.02675e-06	0.005823963880094228
2.02700e-06	0.005792831993170396
2.02725e-06	0.005770896035169078
2.02750e-06	0.005748960077167722
2.02775e-06	0.005727024119166367
2.02800e-06	0.005705088161165011
2.02825e-06	0.005683152203163693
2.02850e-06	0.005661216245162337
2.02875e-06	0.005639280287160982
2.02900e-06	0.005617344329159663
2.02925e-06	0.005595408371158308
2.02950e-06	0.005573472413156952
2.02975e-06	0.005551536455155633
2.03000e-06	0.005529600497154278
2.03025e-06	0.005507664539152922
2.03050e-06	0.005513476743530546
2.03075e-06	0.005519467113810749
2.03100e-06	0.005525457484090964
2.03125e-06	0.005531447854371177
2.03150e-06	0.005537438224651381
2.03175e-06	0.005543428594931595
2.03200e-06	0.005549418965211809
2.03225e-06	0.005555409335492023
2.03250e-06	0.005561399705772227
2.03275e-06	0.005567390076052441
2.03300e-06	0.005573380446332655
2.03325e-06	0.005579370816612858
2.03350e-06	0.005585361186893073
2.03375e-06	0.005597903357032458
2.03400e-06	0.0056171666861148375
2.03425e-06	0.005636430015197249
2.03450e-06	0.005655693344279661
2.03475e-06	0.005674956673362073
2.03500e-06	0.0056942200024444525
2.03525e-06	0.005713483331526864
2.03550e-06	0.005732746660609277
2.03575e-06	0.005752009989691656
2.03600e-06	0.005771273318774068
2.03625e-06	0.0057880045135641316
2.03650e-06	0.005804719449980534
2.03675e-06	0.005821434386396907
2.03700e-06	0.005838149322813308
2.03725e-06	0.00585486425922971
2.03750e-06	0.005871579195646084
2.03775e-06	0.005888294132062485
2.03800e-06	0.005905009068478887
2.03825e-06	0.005921724004895259
2.03850e-06	0.00593822478608456
2.03875e-06	0.005954505876295683
2.03900e-06	0.0059707869665068065
2.03925e-06	0.005987068056717903
2.03950e-06	0.006003349146929026
2.03975e-06	0.006019630237140149
2.04000e-06	0.006035911327351245
2.04025e-06	0.006052192417562368
2.04050e-06	0.0060732109425733274
2.04075e-06	0.006099089361500169
2.04100e-06	0.006124967780426966
2.04125e-06	0.0061508461993538075
2.04150e-06	0.006176724618280649
2.04175e-06	0.006202603037207446
2.04200e-06	0.006228481456134287
2.04225e-06	0.006254359875061128
2.04250e-06	0.006280238293987925
2.04275e-06	0.006306116712914766
2.04300e-06	0.006331995131841607
2.04325e-06	0.006357873550768448
2.04350e-06	0.006383751969695246
2.04375e-06	0.006409630388622087
2.04400e-06	0.006439384611102661
2.04425e-06	0.006469163719412796
2.04450e-06	0.006498942827722981
2.04475e-06	0.006528721936033166
2.04500e-06	0.006558501044343352
2.04525e-06	0.006588280152653487
2.04550e-06	0.0066180592609636725
2.04575e-06	0.006647838369273858
2.04600e-06	0.006677617477583993
2.04625e-06	0.006707396585894178
2.04650e-06	0.006737175694204364
2.04675e-06	0.006766954802514499
2.04700e-06	0.006796733910824684
2.04725e-06	0.006818390245705357
2.04750e-06	0.0068317138395900655
2.04775e-06	0.006845037433474752
2.04800e-06	0.0068583610273594605
2.04825e-06	0.006871684621244169
2.04850e-06	0.0068850082151288555
2.04875e-06	0.006898331809013564
2.04900e-06	0.006911655402898273
2.04925e-06	0.006924978996782982
2.04950e-06	0.006938302590667668
2.04975e-06	0.006936018658668224
2.05000e-06	0.006917723758012471
2.05025e-06	0.006899428857356749
2.05050e-06	0.006881133956700996
2.05075e-06	0.006862839056045244
2.05100e-06	0.006844544155389523
2.05125e-06	0.00682624925473377
2.05150e-06	0.006807954354078017
2.05175e-06	0.006789659453422264
2.05200e-06	0.006771364552766543
2.05225e-06	0.006740162468258114
2.05250e-06	0.006695719558929549
2.05275e-06	0.006651276649601059
2.05300e-06	0.006606833740272494
2.05325e-06	0.006562390830943929
2.05350e-06	0.0065179479216153635
2.05375e-06	0.006473505012286874
2.05400e-06	0.006429062102958309
2.05425e-06	0.0063846191936297435
2.05450e-06	0.006340176284301254
2.05475e-06	0.006289167602866386
2.05500e-06	0.006238116763803023
2.05525e-06	0.006187065924739745
2.05550e-06	0.006136015085676382
2.05575e-06	0.006084964246613018
2.05600e-06	0.006033913407549654
2.05625e-06	0.005982862568486376
2.05650e-06	0.005931811729423013
2.05675e-06	0.005880760890359649
2.05700e-06	0.005840348818056334
2.05725e-06	0.005810850516609887
2.05750e-06	0.005781352215163439
2.05775e-06	0.005751853913716991
2.05800e-06	0.005722355612270593
2.05825e-06	0.005692857310824145
2.05850e-06	0.005663359009377697
2.05875e-06	0.0056338607079313
2.05900e-06	0.005604362406484852
2.05925e-06	0.005574864105038404
2.05950e-06	0.005545365803592006
2.05975e-06	0.0055158675021455585
2.06000e-06	0.005486369200699111
2.06025e-06	0.005489213293878012
2.06050e-06	0.005492265051690507
2.06075e-06	0.005495316809503008
2.06100e-06	0.005498368567315509
2.06125e-06	0.005501420325128004
2.06150e-06	0.005504472082940505
2.06175e-06	0.005507523840753006
2.06200e-06	0.005510575598565506
2.06225e-06	0.005513627356378002
2.06250e-06	0.005516679114190502
2.06275e-06	0.005519730872003002
2.06300e-06	0.005522782629815498
2.06325e-06	0.005534848702987808
2.06350e-06	0.005556162104773572
2.06375e-06	0.005577475506559299
2.06400e-06	0.005598788908345063
2.06425e-06	0.0056201023101308265
2.06450e-06	0.00564141571191659
2.06475e-06	0.005662729113702318
2.06500e-06	0.005684042515488082
2.06525e-06	0.005705355917273846
2.06550e-06	0.005726669319059574
2.06575e-06	0.005747982720845338
2.06600e-06	0.0057682143815512
2.06625e-06	0.005787336338986049
2.06650e-06	0.005806458296420867
2.06675e-06	0.0058255802538557154
2.06700e-06	0.005844702211290565
2.06725e-06	0.005863824168725382
2.06750e-06	0.005882946126160231
2.06775e-06	0.00590206808359508
2.06800e-06	0.005921190041029897
2.06825e-06	0.005940311998464747
2.06850e-06	0.005959433955899596
2.06875e-06	0.0059738271173877845
2.06900e-06	0.005983369247120236
2.06925e-06	0.005992911376852704
2.06950e-06	0.006002453506585171
2.06975e-06	0.006011995636317622
2.07000e-06	0.00602153776605009
2.07025e-06	0.0060310798957825575
2.07050e-06	0.006040622025515025
2.07075e-06	0.006050164155247476
2.07100e-06	0.006059706284979943
2.07125e-06	0.006069248414712411
2.07150e-06	0.006078790544444862
2.07175e-06	0.0060883326741773295
2.07200e-06	0.006097874803909797
2.07225e-06	0.006107416933642249
2.07250e-06	0.006116959063374716
2.07275e-06	0.006126501193107183
2.07300e-06	0.006136043322839651
2.07325e-06	0.0061455854525721025
2.07350e-06	0.00615035354238429
2.07375e-06	0.006155090978954316
2.07400e-06	0.006159828415524334
2.07425e-06	0.00616456585209436
2.07450e-06	0.006169303288664386
2.07475e-06	0.006174040725234412
2.07500e-06	0.0061787781618044295
2.07525e-06	0.0061835155983744556
2.07550e-06	0.006188253034944482
2.07575e-06	0.0061929904715145
2.07600e-06	0.006197727908084526
2.07625e-06	0.006202465344654552
2.07650e-06	0.00620720278122457
2.07675e-06	0.006211940217794596
2.07700e-06	0.006216677654364622
2.07725e-06	0.006221415090934648
2.07750e-06	0.006226152527504665
2.07775e-06	0.0062308899640746915
2.07800e-06	0.006229549192172381
2.07825e-06	0.006221973094692117
2.07850e-06	0.006214396997211841
2.07875e-06	0.0062068208997315645
2.07900e-06	0.0061992448022512876
2.07925e-06	0.0061916687047710245
2.07950e-06	0.006184092607290748
2.07975e-06	0.006176516509810471
2.08000e-06	0.006168940412330208
2.08025e-06	0.006161364314849931
2.08050e-06	0.006153788217369654
2.08075e-06	0.006134954151454127
2.08100e-06	0.0061045711071083045
2.08125e-06	0.006074188062762483
2.08150e-06	0.006043805018416662
2.08175e-06	0.006013421974070891
2.08200e-06	0.005983038929725069
2.08225e-06	0.005952655885379248
2.08250e-06	0.005922272841033477
2.08275e-06	0.005891889796687656
2.08300e-06	0.005861506752341834
2.08325e-06	0.005831123707996012
2.08350e-06	0.005794482388759333
2.08375e-06	0.005751421022944752
2.08400e-06	0.00570835965713017
2.08425e-06	0.005665298291315661
2.08450e-06	0.0056222369255010795
2.08475e-06	0.005579175559686498
2.08500e-06	0.00553611419387199
2.08525e-06	0.005493052828057408
2.08550e-06	0.005449991462242826
2.08575e-06	0.005406930096428245
2.08600e-06	0.005369951989651186
2.08625e-06	0.005333012942374209
2.08650e-06	0.005296073895097232
2.08675e-06	0.005259134847820317
2.08700e-06	0.005222195800543341
2.08725e-06	0.005185256753266363
2.08750e-06	0.005148317705989449
2.08775e-06	0.0051113786587124715
2.08800e-06	0.005074439611435494
2.08825e-06	0.005051965816031411
2.08850e-06	0.0050443311883542775
2.08875e-06	0.00503669656067713
2.08900e-06	0.005029061932999982
2.08925e-06	0.005021427305322848
2.08950e-06	0.0050137926776457
2.08975e-06	0.005006158049968554
2.09000e-06	0.004998523422291406
2.09025e-06	0.004990888794614272
2.09050e-06	0.004983254166937124
2.09075e-06	0.0049756195392599775
2.09100e-06	0.0050041598565767
2.09125e-06	0.005032932446637741
2.09150e-06	0.005061705036698781
2.09175e-06	0.005090477626759773
2.09200e-06	0.005119250216820814
2.09225e-06	0.005148022806881853
2.09250e-06	0.005176795396942894
2.09275e-06	0.005205567987003886
2.09300e-06	0.005234340577064926
2.09325e-06	0.0052631131671259665
2.09350e-06	0.005301660864863532
2.09375e-06	0.005350236349440885
2.09400e-06	0.005398811834018236
2.09425e-06	0.005447387318595589
2.09450e-06	0.005495962803172858
2.09475e-06	0.005544538287750211
2.09500e-06	0.005593113772327562
2.09525e-06	0.0056416892569048326
2.09550e-06	0.005690264741482184
2.09575e-06	0.0057362743082031795
2.09600e-06	0.005782267399632078
2.09625e-06	0.005828260491061055
2.09650e-06	0.005874253582490031
2.09675e-06	0.005920246673919008
2.09700e-06	0.0059662397653479065
2.09725e-06	0.006012232856776883
2.09750e-06	0.00605822594820586
2.09775e-06	0.0060902022829078415
2.09800e-06	0.006107799538289518
2.09825e-06	0.006125396793671194
2.09850e-06	0.00614299404905287
2.09875e-06	0.006160591304434517
2.09900e-06	0.006178188559816193
2.09925e-06	0.006195785815197869
2.09950e-06	0.006213383070579516
2.09975e-06	0.006230980325961192
2.10000e-06	0.006248577581342868
2.10025e-06	0.0062661748367245146
2.10050e-06	0.006264452648200176
2.10075e-06	0.0062429116227106
2.10100e-06	0.006221370597221026
2.10125e-06	0.006199829571731486
2.10150e-06	0.006178288546241912
2.10175e-06	0.006156747520752336
2.10200e-06	0.006135206495262797
2.10225e-06	0.006113665469773222
2.10250e-06	0.006092124444283646
2.10275e-06	0.006070583418794071
2.10300e-06	0.006049042393304532
2.10325e-06	0.006016232797968071
2.10350e-06	0.005971863348749957
2.10375e-06	0.0059274938995319175
2.10400e-06	0.005883124450313804
2.10425e-06	0.00583875500109569
2.10450e-06	0.00579438555187765
2.10475e-06	0.005750016102659536
2.10500e-06	0.005705646653441422
2.10525e-06	0.005661277204223308
2.10550e-06	0.005617169514228954
2.10575e-06	0.005573330349736796
2.10600e-06	0.00552949118524464
2.10625e-06	0.005485652020752557
2.10650e-06	0.0054418128562604
2.10675e-06	0.005397973691768244
2.10700e-06	0.005354134527276087
2.10725e-06	0.005310295362784005
2.10750e-06	0.0052664561982918474
2.10775e-06	0.005232219581694762
2.10800e-06	0.005207833731616511
2.10825e-06	0.005183447881538217
2.10850e-06	0.005159062031459924
2.10875e-06	0.005134676181381672
2.10900e-06	0.005110290331303379
2.10925e-06	0.005085904481225085
2.10950e-06	0.005061518631146793
2.10975e-06	0.00503713278106854
2.11000e-06	0.005012746930990247
2.11025e-06	0.004988361080911954
2.11050e-06	0.004963975230833702
2.11075e-06	0.004939589380755409
2.11100e-06	0.004915203530677116
2.11125e-06	0.004897312024245617
2.11150e-06	0.004886082735348292
2.11175e-06	0.0048748534464509476
2.11200e-06	0.004863624157553604
2.11225e-06	0.004852394868656279
2.11250e-06	0.004841165579758935
2.11275e-06	0.004829936290861591
2.11300e-06	0.004818707001964266
2.11325e-06	0.004807477713066922
2.11350e-06	0.004796248424169577
2.11375e-06	0.004785019135272233
2.11400e-06	0.004773789846374908
2.11425e-06	0.004762560557477565
2.11450e-06	0.004751331268580221
2.11475e-06	0.004742934785093778
2.11500e-06	0.004737444332902595
2.11525e-06	0.004731953880711411
2.11550e-06	0.004726463428520227
2.11575e-06	0.004720972976329053
2.11600e-06	0.004715482524137869
2.11625e-06	0.004709992071946685
2.11650e-06	0.0047045016197555115
2.11675e-06	0.004699011167564327
2.11700e-06	0.004693520715373144
2.11725e-06	0.004688030263181969
2.11750e-06	0.004682539810990786
2.11775e-06	0.004677049358799602
2.11800e-06	0.004671558906608419
2.11825e-06	0.004668451472407327
2.11850e-06	0.004664696205856888
2.11875e-06	-0.044990149943092195
2.11900e-06	-0.023907768941934544
2.11925e-06	-0.012193002059371188
2.11950e-06	-0.00017805620492730972
2.11975e-06	0.013284847997283716
2.12000e-06	0.01983721212462935
2.12025e-06	0.016761030675209315
2.12050e-06	0.007960268269558353
2.12075e-06	-0.00288412306125462
2.12100e-06	-0.008079200429795139
2.12125e-06	-0.004576296229122227
2.12150e-06	0.0031185623170520635
2.12175e-06	0.011285388397412117
2.12200e-06	0.015161617372195462
2.12225e-06	0.013091920983569197
2.12250e-06	0.007487122883555941
2.12275e-06	0.0006326155736452654
2.12300e-06	-0.002664934609268572
2.12325e-06	-0.0005033543049579878
2.12350e-06	0.004290244964886112
2.12375e-06	0.009383076706492468
2.12400e-06	0.011790535069236678
2.12425e-06	0.010475156078280092
2.12450e-06	0.00694683294503192
2.12475e-06	0.0026369591259665856
2.12500e-06	0.0005561669637496829
2.12525e-06	0.001895596052804743
2.12550e-06	0.004884037058347735
2.12575e-06	0.008060096824463913
2.12600e-06	0.009554249906723385
2.12625e-06	0.00871678247369526
2.12650e-06	0.006493634378568673
2.12675e-06	0.0037814907546409914
2.12700e-06	0.002466144911043408
2.12725e-06	0.0032935445664958184
2.12750e-06	0.0051540431476235025
2.12775e-06	0.007132155503579023
2.12800e-06	0.008056997895919958
2.12825e-06	0.007522365644729895
2.12850e-06	0.0061219452965659065
2.12875e-06	0.0044181486919959555
2.12900e-06	0.0035922730219362757
2.12925e-06	0.004111324072752747
2.12950e-06	0.005279975422083998
2.12975e-06	0.006524581369517346
2.13000e-06	0.0071115747311256165
2.13025e-06	0.006786428508042863
2.13050e-06	0.005920940027537824
2.13075e-06	0.004867283423688243
2.13100e-06	0.00436525281487118
2.13125e-06	0.004707163946424658
2.13150e-06	0.005457255934774347
2.13175e-06	0.0062560249082838125
2.13200e-06	0.006643830492741013
2.13225e-06	0.0064611304044852845
2.13250e-06	0.00594070820089241
2.13275e-06	0.005303035484682164
2.13300e-06	0.005011356611036664
2.13325e-06	0.00524858659734574
2.13350e-06	0.005741579475558697
2.13375e-06	0.006264979542686566
2.13400e-06	0.006530728286888179
2.13425e-06	0.006438766666317439
2.13450e-06	0.006134786200816044
2.13475e-06	0.00575675336789118
2.13500e-06	0.005594687855333466
2.13525e-06	0.00576299307153855
2.13550e-06	0.006090398768759358
2.13575e-06	0.006435585129864755
2.13600e-06	0.006617970281299719
2.13625e-06	0.006574745998492849
2.13650e-06	0.006397041075743914
2.13675e-06	0.006171137340859252
2.13700e-06	0.006078550011352439
2.13725e-06	0.00619077720203956
2.13750e-06	0.006400373510844751
2.13775e-06	0.00661866284495889
2.13800e-06	0.006732461299430958
2.13825e-06	0.0067026372976005605
2.13850e-06	0.0065867497274545005
2.13875e-06	0.006439246087089963
2.13900e-06	0.006373991256598012
2.13925e-06	0.006435837128548838
2.13950e-06	0.00655754570590601
2.13975e-06	0.006683642220308588
2.14000e-06	0.006743305577078525
2.14025e-06	0.006712106023095827
2.14050e-06	0.006626179503016926
2.14075e-06	0.006519710347342968
2.14100e-06	0.006464096811029238
2.14125e-06	0.006487502912813568
2.14150e-06	0.006547880824570408
2.14175e-06	0.00661055425849557
2.14200e-06	0.006631238465993082
2.14225e-06	0.006594710003344669
2.14250e-06	0.006523324184330534
2.14275e-06	0.00643931958659222
2.14300e-06	0.006387409407532668
2.14325e-06	0.0063846731655464155
2.14350e-06	0.006403589758467016
2.14375e-06	0.006425809252452173
2.14400e-06	0.006423292043571737
2.14425e-06	0.006383785990538525
2.14450e-06	0.006322963507421078
2.14475e-06	0.0062545604254525934
2.14500e-06	0.006206690901344481
2.14525e-06	0.006190357485631363
2.14550e-06	0.006188482680184737
2.14575e-06	0.006189214699728386
2.14600e-06	0.006175115412378486
2.14625e-06	0.006138954427695158
2.14650e-06	0.006090723655587961
2.14675e-06	0.006038504398829227
2.14700e-06	0.006000051269210793
2.14725e-06	0.005982839138537743
2.14750e-06	0.005973569499846438
2.14775e-06	0.005964351579443748
2.14800e-06	0.005955133659041072
2.14825e-06	0.00593511299619658
2.14850e-06	0.0059038284514872945
2.14875e-06	0.00587133243377299
2.14900e-06	0.005838836416058629
2.14925e-06	0.0058158689976855705
2.14950e-06	0.0058003482901014996
2.14975e-06	0.005783604351973374
2.15000e-06	0.005766860413845221
2.15025e-06	0.005742145889638179
2.15050e-06	0.0057082872588235245
2.15075e-06	0.005672767391929836
