Time(s)	Current(A)
7.30000e-06	-0.006107847189045931
7.30025e-06	-0.006057726409008422
7.30050e-06	-0.006007605628970744
7.30075e-06	-0.005957484848933234
7.30100e-06	-0.005907364068895725
7.30125e-06	-0.005857243288858046
7.30150e-06	-0.005807122508820537
7.30175e-06	-0.00578025470963281
7.30200e-06	-0.0057592755993433045
7.30225e-06	-0.005738296489053799
7.30250e-06	-0.005717317378764222
7.30275e-06	-0.005696338268474716
7.30300e-06	-0.00567535915818521
7.30325e-06	-0.005654380047895634
7.30350e-06	-0.005633400937606128
7.30375e-06	-0.005612421827316623
7.30400e-06	-0.005591442717027046
7.30425e-06	-0.00557046360673754
7.30450e-06	-0.005549484496448034
7.30475e-06	-0.005528505386158458
7.30500e-06	-0.005516227854876466
7.30525e-06	-0.00552445564140862
7.30550e-06	-0.005532683427940802
7.30575e-06	-0.005540911214472955
7.30600e-06	-0.005549139001005137
7.30625e-06	-0.005557366787537291
7.30650e-06	-0.005565594574069445
7.30675e-06	-0.005573822360601626
7.30700e-06	-0.00558205014713378
7.30725e-06	-0.005590277933665934
7.30750e-06	-0.005598505720198115
7.30775e-06	-0.005606733506730269
7.30800e-06	-0.005614961293262423
7.30825e-06	-0.005623189079794605
7.30850e-06	-0.005640225328221126
7.30875e-06	-0.005659492270944057
7.30900e-06	-0.005678759213667051
7.30925e-06	-0.005698026156389981
7.30950e-06	-0.0057172930991129115
7.30975e-06	-0.005736560041835906
7.31000e-06	-0.005755826984558836
7.31025e-06	-0.005775093927281831
7.31050e-06	-0.005794360870004761
7.31075e-06	-0.005812082970956692
7.31100e-06	-0.005829413849267484
7.31125e-06	-0.005846744727578217
7.31150e-06	-0.005864075605888951
7.31175e-06	-0.005881406484199743
7.31200e-06	-0.005898737362510476
7.31225e-06	-0.005916068240821209
7.31250e-06	-0.005933399119132002
7.31275e-06	-0.005950729997442735
7.31300e-06	-0.005971979419193057
7.31325e-06	-0.0059942211904142955
7.31350e-06	-0.00601646296163546
7.31375e-06	-0.006038704732856623
7.31400e-06	-0.006060946504077863
7.31425e-06	-0.006083188275299026
7.31450e-06	-0.006105430046520266
7.31475e-06	-0.00612767181774143
7.31500e-06	-0.006149913588962594
7.31525e-06	-0.006172155360183833
7.31550e-06	-0.006194397131404997
7.31575e-06	-0.0062166389026261605
7.31600e-06	-0.0062417071729753935
7.31625e-06	-0.006273436103746741
7.31650e-06	-0.006305165034518087
7.31675e-06	-0.006336893965289541
7.31700e-06	-0.006368622896060888
7.31725e-06	-0.006400351826832234
7.31750e-06	-0.006432080757603688
7.31775e-06	-0.006463809688375035
7.31800e-06	-0.006495538619146381
7.31825e-06	-0.006527267549917835
7.31850e-06	-0.006558996480689182
7.31875e-06	-0.006590725411460636
7.31900e-06	-0.006622454342231983
7.31925e-06	-0.00665187705792573
7.31950e-06	-0.0066807157373962285
7.31975e-06	-0.00670955441686663
7.32000e-06	-0.006738393096337032
7.32025e-06	-0.0067672317758075305
7.32050e-06	-0.006796070455277932
7.32075e-06	-0.006824909134748334
7.32100e-06	-0.006853747814218832
7.32125e-06	-0.006882586493689234
7.32150e-06	-0.006911425173159636
7.32175e-06	-0.006940263852630134
7.32200e-06	-0.006969102532100536
7.32225e-06	-0.0069979412115709376
7.32250e-06	-0.0070207322310450624
7.32275e-06	-0.007029271907159427
7.32300e-06	-0.00703781158327382
7.32325e-06	-0.007046351259388183
7.32350e-06	-0.007054890935502547
7.32375e-06	-0.00706343061161694
7.32400e-06	-0.0070719702877313035
7.32425e-06	-0.007080509963845668
7.32450e-06	-0.00708904963996006
7.32475e-06	-0.007097589316074424
7.32500e-06	-0.0071061289921887875
7.32525e-06	-0.00711466866830318
7.32550e-06	-0.007123208344417545
7.32575e-06	-0.007131748020531908
7.32600e-06	-0.007125131473740742
7.32625e-06	-0.007114676697258801
7.32650e-06	-0.007104221920776861
7.32675e-06	-0.007093767144294886
7.32700e-06	-0.0070833123678129455
7.32725e-06	-0.0070728575913309695
7.32750e-06	-0.007062402814849029
7.32775e-06	-0.00705194803836709
7.32800e-06	-0.007041493261885114
7.32825e-06	-0.007031038485403173
7.32850e-06	-0.007020583708921234
7.32875e-06	-0.007010128932439258
7.32900e-06	-0.006999674155957317
7.32925e-06	-0.006987484201353663
7.32950e-06	-0.006974854822480053
7.32975e-06	-0.006962225443606484
7.33000e-06	-0.006949596064732916
7.33025e-06	-0.006936966685859304
7.33050e-06	-0.006924337306985736
7.33075e-06	-0.006911707928112168
7.33100e-06	-0.006899078549238557
7.33125e-06	-0.006886449170364989
7.33150e-06	-0.006873819791491377
7.33175e-06	-0.006861190412617809
7.33200e-06	-0.0068485610337442404
7.33225e-06	-0.00683593165487063
7.33250e-06	-0.006823719714539422
7.33275e-06	-0.006811613488212094
7.33300e-06	-0.0067995072618847255
7.33325e-06	-0.006787401035557398
7.33350e-06	-0.00677529480923007
7.33375e-06	-0.006763188582902702
7.33400e-06	-0.0067510823565753745
7.33425e-06	-0.0067389761302480465
7.33450e-06	-0.006726869903920679
7.33475e-06	-0.006714763677593351
7.33500e-06	-0.006702657451266024
7.33525e-06	-0.006690551224938655
7.33550e-06	-0.006678444998611327
7.33575e-06	-0.006659545856763778
7.33600e-06	-0.006638926446601989
7.33625e-06	-0.0066183070364402
7.33650e-06	-0.006597687626278342
7.33675e-06	-0.006577068216116554
7.33700e-06	-0.006556448805954765
7.33725e-06	-0.006535829395792906
7.33750e-06	-0.006515209985631118
7.33775e-06	-0.006494590575469329
7.33800e-06	-0.00647397116530747
7.33825e-06	-0.006453351755145682
7.33850e-06	-0.006432732344983893
7.33875e-06	-0.006412112934822034
7.33900e-06	-0.006392924927016698
7.33925e-06	-0.0063740994139474235
7.33950e-06	-0.0063552739008780855
7.33975e-06	-0.006336448387808812
7.34000e-06	-0.006317622874739474
7.34025e-06	-0.0062987973616702
7.34050e-06	-0.006279971848600926
7.34075e-06	-0.006261146335531588
7.34100e-06	-0.0062423208224623135
7.34125e-06	-0.00622349530939304
7.34150e-06	-0.006204669796323702
7.34175e-06	-0.006185844283254428
7.34200e-06	-0.006167018770185153
7.34225e-06	-0.006152584176704938
7.34250e-06	-0.006148496808885523
7.34275e-06	-0.006144409441066106
7.34300e-06	-0.006140322073246677
7.34325e-06	-0.006136234705427262
7.34350e-06	-0.0061321473376078454
7.34375e-06	-0.006128059969788416
7.34400e-06	-0.006123972601969001
7.34425e-06	-0.006119885234149571
7.34450e-06	-0.006115797866330155
7.34475e-06	-0.006111710498510739
7.34500e-06	-0.00610762313069131
7.34525e-06	-0.006103535762871894
7.34550e-06	-0.006099448395052478
7.34575e-06	-0.006104564660260229
7.34600e-06	-0.006112011694667349
7.34625e-06	-0.0061194587290744696
7.34650e-06	-0.006126905763481616
7.34675e-06	-0.006134352797888736
7.34700e-06	-0.006141799832295856
7.34725e-06	-0.0061492468667030025
7.34750e-06	-0.006156693901110123
7.34775e-06	-0.006164140935517243
7.34800e-06	-0.006171587969924389
7.34825e-06	-0.006179035004331509
7.34850e-06	-0.006186482038738655
7.34875e-06	-0.006193929073145776
7.34900e-06	-0.006203915494388788
7.34925e-06	-0.006214545001313801
7.34950e-06	-0.006225174508238778
7.34975e-06	-0.006235804015163757
7.35000e-06	-0.00624643352208877
7.35025e-06	-0.006257063029013747
7.35050e-06	-0.006267692535938726
7.35075e-06	-0.006278322042863739
7.35100e-06	-0.006288951549788716
7.35125e-06	-0.006299581056713695
7.35150e-06	-0.006310210563638708
7.35175e-06	-0.006320840070563685
7.35200e-06	-0.006331469577488664
7.35225e-06	-0.006347864506616825
7.35250e-06	-0.006365719497054451
7.35275e-06	-0.006383574487492138
7.35300e-06	-0.006401429477929765
7.35325e-06	-0.0064192844683673925
7.35350e-06	-0.00643713945880508
7.35375e-06	-0.006454994449242707
7.35400e-06	-0.006472849439680333
7.35425e-06	-0.006490704430118021
7.35450e-06	-0.006508559420555647
7.35475e-06	-0.006541667435267215
7.35500e-06	-0.006578638194077979
7.35525e-06	-0.006615608952888618
7.35550e-06	-0.006652579711699258
7.35575e-06	-0.006689550470510022
7.35600e-06	-0.0067265212293206615
7.35625e-06	-0.0067634919881313016
7.35650e-06	-0.006800462746942066
7.35675e-06	-0.006837433505752705
7.35700e-06	-0.00687440426456347
7.35725e-06	-0.006921648570601789
7.35750e-06	-0.00697149459569688
7.35775e-06	-0.007021340620792141
7.35800e-06	-0.007071186645887232
7.35825e-06	-0.007121032670982324
7.35850e-06	-0.007170878696077584
7.35875e-06	-0.007220724721172675
7.35900e-06	-0.007270570746267767
7.35925e-06	-0.007320416771363027
7.35950e-06	-0.007370262796458119
7.35975e-06	-0.007418075140237468
7.36000e-06	-0.007461095103045118
7.36025e-06	-0.007504115065852621
7.36050e-06	-0.007547135028660125
7.36075e-06	-0.007590154991467773
7.36100e-06	-0.007633174954275276
7.36125e-06	-0.00767619491708278
7.36150e-06	-0.007719214879890429
7.36175e-06	-0.007762234842697932
7.36200e-06	-0.007805254805505582
7.36225e-06	-0.007848274768313086
7.36250e-06	-0.007872237677964949
7.36275e-06	-0.00789137449422821
7.36300e-06	-0.007910511310491407
7.36325e-06	-0.007929648126754604
7.36350e-06	-0.007948784943017866
7.36375e-06	-0.007967921759281063
7.36400e-06	-0.007987058575544258
7.36425e-06	-0.008006195391807521
7.36450e-06	-0.008025332208070717
7.36475e-06	-0.008044469024333914
7.36500e-06	-0.008063605840597175
7.36525e-06	-0.008082742656860372
7.36550e-06	-0.00810187947312357
7.36575e-06	-0.00812101628938683
7.36600e-06	-0.008140153105650028
7.36625e-06	-0.008154072934239441
7.36650e-06	-0.008155698903284065
7.36675e-06	-0.008157324872328689
7.36700e-06	-0.008158950841373318
7.36725e-06	-0.008160576810417942
7.36750e-06	-0.008162202779462566
7.36775e-06	-0.008163828748507197
7.36800e-06	-0.00816545471755182
7.36825e-06	-0.008167080686596445
7.36850e-06	-0.008168706655641074
7.36875e-06	-0.008170332624685698
7.36900e-06	-0.008171958593730322
7.36925e-06	-0.008173584562774951
7.36950e-06	-0.008175210531819575
7.36975e-06	-0.008176836500864199
7.37000e-06	-0.00817846246990883
7.37025e-06	-0.008177337903999798
7.37050e-06	-0.008175516780315346
7.37075e-06	-0.0081736956566309
7.37100e-06	-0.008171874532946453
7.37125e-06	-0.008170053409262001
7.37150e-06	-0.008168232285577556
7.37175e-06	-0.00816641116189311
7.37200e-06	-0.008164590038208658
7.37225e-06	-0.008162768914524212
7.37250e-06	-0.008160947790839765
7.37275e-06	-0.008159126667155313
7.37300e-06	-0.008157305543470867
7.37325e-06	-0.00814403230324934
7.37350e-06	-0.008127858877808298
7.37375e-06	-0.00811168545236731
7.37400e-06	-0.008095512026926323
7.37425e-06	-0.008079338601485282
7.37450e-06	-0.008063165176044296
7.37475e-06	-0.008046991750603253
7.37500e-06	-0.008030818325162267
7.37525e-06	-0.00801464489972128
7.37550e-06	-0.007998471474280238
7.37575e-06	-0.007982298048839251
7.37600e-06	-0.007966124623398263
7.37625e-06	-0.007935386422798625
7.37650e-06	-0.00790095977338711
7.37675e-06	-0.007866533123975597
7.37700e-06	-0.007832106474563966
7.37725e-06	-0.0077976798251524525
7.37750e-06	-0.007763253175740939
7.37775e-06	-0.0077288265263293085
7.37800e-06	-0.007694399876917795
7.37825e-06	-0.007659973227506281
7.37850e-06	-0.007625546578094651
7.37875e-06	-0.00759062793841886
7.37900e-06	-0.007554549921036337
7.37925e-06	-0.007518471903653937
7.37950e-06	-0.007482393886271537
7.37975e-06	-0.007446315868889014
7.38000e-06	-0.007410237851506613
7.38025e-06	-0.007374159834124212
7.38050e-06	-0.00733808181674169
7.38075e-06	-0.007302003799359289
7.38100e-06	-0.007265925781976889
7.38125e-06	-0.007229847764594366
7.38150e-06	-0.007210174226042927
7.38175e-06	-0.00719465503109011
7.38200e-06	-0.00717913583613724
7.38225e-06	-0.007163616641184423
7.38250e-06	-0.0071480974462316054
7.38275e-06	-0.007132578251278735
7.38300e-06	-0.007117059056325918
7.38325e-06	-0.007101539861373048
7.38350e-06	-0.007086020666420231
7.38375e-06	-0.007070501471467414
7.38400e-06	-0.0070549822765145435
7.38425e-06	-0.007047580490072158
7.38450e-06	-0.0070593074204857165
7.38475e-06	-0.007071034350899315
7.38500e-06	-0.007082761281312874
7.38525e-06	-0.007094488211726433
7.38550e-06	-0.0071062151421400314
7.38575e-06	-0.00711794207255359
7.38600e-06	-0.007129669002967149
7.38625e-06	-0.007141395933380748
7.38650e-06	-0.0071531228637943065
7.38675e-06	-0.007164849794207865
7.38700e-06	-0.007176576724621464
7.38725e-06	-0.007201497428154176
7.38750e-06	-0.00722975938180866
7.38775e-06	-0.007258021335463049
7.38800e-06	-0.007286283289117437
7.38825e-06	-0.007314545242771921
7.38850e-06	-0.00734280719642631
7.38875e-06	-0.007371069150080699
7.38900e-06	-0.007399331103735183
7.38925e-06	-0.007427593057389571
7.38950e-06	-0.00745585501104396
7.38975e-06	-0.007484116964698444
7.39000e-06	-0.007512378918352833
7.39025e-06	-0.007537269914057949
7.39050e-06	-0.007561307233293534
7.39075e-06	-0.007585344552529038
7.39100e-06	-0.007609381871764542
7.39125e-06	-0.007633419191000127
7.39150e-06	-0.007657456510235631
7.39175e-06	-0.007681493829471216
7.39200e-06	-0.0077055311487067195
7.39225e-06	-0.007729568467942223
7.39250e-06	-0.007753605787177808
7.39275e-06	-0.007777643106413312
7.39300e-06	-0.007801680425648816
7.39325e-06	-0.007810108200652975
7.39350e-06	-0.00781458294485368
7.39375e-06	-0.007819057689054386
7.39400e-06	-0.007823532433255108
7.39425e-06	-0.007828007177455814
7.39450e-06	-0.007832481921656519
7.39475e-06	-0.00783695666585724
7.39500e-06	-0.007841431410057945
7.39525e-06	-0.007845906154258652
7.39550e-06	-0.007850380898459373
7.39575e-06	-0.007854855642660079
7.39600e-06	-0.0078593303868608
7.39625e-06	-0.007859159319158624
7.39650e-06	-0.007848040370698998
7.39675e-06	-0.007836921422239334
7.39700e-06	-0.007825802473779706
7.39725e-06	-0.00781468352532008
7.39750e-06	-0.007803564576860415
7.39775e-06	-0.007792445628400788
7.39800e-06	-0.007781326679941161
7.39825e-06	-0.007770207731481497
7.39850e-06	-0.00775908878302187
7.39875e-06	-0.0077479698345622435
7.39900e-06	-0.007736850886102579
7.39925e-06	-0.0077257319376429524
7.39950e-06	-0.007714545646814356
7.39975e-06	-0.007703342301902981
7.40000e-06	-0.007692138956991644
7.40025e-06	-0.00768093561208027
7.40050e-06	-0.007669732267168933
7.40075e-06	-0.007658528922257596
7.40100e-06	-0.007647325577346221
7.40125e-06	-0.007636122232434884
7.40150e-06	-0.007624918887523547
7.40175e-06	-0.007613715542612172
7.40200e-06	-0.007602512197700835
7.40225e-06	-0.0075913088527894985
7.40250e-06	-0.007580105507878123
7.40275e-06	-0.007584687885128073
7.40300e-06	-0.007593267909267312
7.40325e-06	-0.0076018479334065804
7.40350e-06	-0.00761042795754582
7.40375e-06	-0.007619007981685059
7.40400e-06	-0.007627588005824327
7.40425e-06	-0.007636168029963567
7.40450e-06	-0.007644748054102835
7.40475e-06	-0.007653328078242074
7.40500e-06	-0.007661908102381314
7.40525e-06	-0.007670488126520582
7.40550e-06	-0.007679068150659821
7.40575e-06	-0.007687648174799061
7.40600e-06	-0.00771244528310736
7.40625e-06	-0.007741349278348802
7.40650e-06	-0.007770253273590245
7.40675e-06	-0.007799157268831785
7.40700e-06	-0.007828061264073228
7.40725e-06	-0.00785696525931467
7.40750e-06	-0.00788586925455621
7.40775e-06	-0.007914773249797651
7.40800e-06	-0.007943677245039095
7.40825e-06	-0.007972581240280635
7.40850e-06	-0.008002992652680141
7.40875e-06	-0.008036956301726106
7.40900e-06	-0.008070919950771954
7.40925e-06	-0.0081048835998178
7.40950e-06	-0.008138847248863764
7.40975e-06	-0.008172810897909612
7.41000e-06	-0.00820677454695546
7.41025e-06	-0.008240738196001423
7.41050e-06	-0.00827470184504727
7.41075e-06	-0.008308665494093119
7.41100e-06	-0.008342629143139081
7.41125e-06	-0.008368602994719452
7.41150e-06	-0.008392553474252
7.41175e-06	-0.008416503953784628
7.41200e-06	-0.008440454433317176
7.41225e-06	-0.008464404912849723
7.41250e-06	-0.008488355392382352
7.41275e-06	-0.0085123058719149
7.41300e-06	-0.008536256351447526
7.41325e-06	-0.008560206830980074
7.41350e-06	-0.008580947181894245
7.41375e-06	-0.00859412284744226
7.41400e-06	-0.008607298512990231
7.41425e-06	-0.008620474178538201
7.41450e-06	-0.008633649844086218
7.41475e-06	-0.008646825509634188
7.41500e-06	-0.00866000117518216
7.41525e-06	-0.008673176840730174
7.41550e-06	-0.008686352506278146
7.41575e-06	-0.008699528171826116
7.41600e-06	-0.008708906251552547
7.41625e-06	-0.008714287049738634
7.41650e-06	-0.008718899108139742
7.41675e-06	-0.008723511166540864
7.41700e-06	-0.008728123224941972
7.41725e-06	-0.008732735283343096
7.41750e-06	-0.008737347341744202
7.41775e-06	-0.00874195940014531
7.41800e-06	-0.008746571458546432
7.41825e-06	-0.00875118351694754
7.41850e-06	-0.008755795575348646
7.41875e-06	-0.00876040763374977
7.41900e-06	-0.008765019692150877
7.41925e-06	-0.008768858858104933
7.41950e-06	-0.008770876698848006
7.41975e-06	-0.008772894539591071
7.42000e-06	-0.008774912380334137
7.42025e-06	-0.008776930221077209
7.42050e-06	-0.008778948061820273
7.42075e-06	-0.008780965902563338
7.42100e-06	-0.00878298374330641
7.42125e-06	-0.008785001584049476
7.42150e-06	-0.008787019424792548
7.42175e-06	-0.008789037265535612
7.42200e-06	-0.008791055106278678
7.42225e-06	-0.00879307294702175
7.42250e-06	-0.008789765112865559
7.42275e-06	-0.008785108580977053
7.42300e-06	-0.008780452049088533
7.42325e-06	-0.008775795517200027
7.42350e-06	-0.008771138985311523
7.42375e-06	-0.008766482453423001
7.42400e-06	-0.008761825921534497
7.42425e-06	-0.008757169389645991
7.42450e-06	-0.008752512857757471
7.42475e-06	-0.008747856325868966
7.42500e-06	-0.008743199793980461
7.42525e-06	-0.008734699535154771
7.42550e-06	-0.008717141513116974
7.42575e-06	-0.008699583491079115
7.42600e-06	-0.008682025469041316
7.42625e-06	-0.008664467447003516
7.42650e-06	-0.008646909424965658
7.42675e-06	-0.00862935140292786
7.42700e-06	-0.00861179338089006
7.42725e-06	-0.008594235358852202
7.42750e-06	-0.008576677336814402
7.42775e-06	-0.008559119314776605
7.42800e-06	-0.008541561292738746
7.42825e-06	-0.008520225932004083
7.42850e-06	-0.0084979339811226
7.42875e-06	-0.008475642030241044
7.42900e-06	-0.008453350079359564
7.42925e-06	-0.008431058128478082
7.42950e-06	-0.008408766177596526
7.42975e-06	-0.008386474226715044
7.43000e-06	-0.008364182275833488
7.43025e-06	-0.008341890324952006
7.43050e-06	-0.008319598374070526
7.43075e-06	-0.008303306448428149
7.43100e-06	-0.008288533996014112
7.43125e-06	-0.008273761543600077
7.43150e-06	-0.00825898909118599
7.43175e-06	-0.008244216638771956
7.43200e-06	-0.00822944418635792
7.43225e-06	-0.008214671733943834
7.43250e-06	-0.008199899281529798
7.43275e-06	-0.008185126829115763
7.43300e-06	-0.008170354376701676
7.43325e-06	-0.008163193668241505
7.43350e-06	-0.008157960591865621
7.43375e-06	-0.00815272751548972
7.43400e-06	-0.008147494439113837
7.43425e-06	-0.008142261362737937
7.43450e-06	-0.008137028286362053
7.43475e-06	-0.00813179520998617
7.43500e-06	-0.008126562133610267
7.43525e-06	-0.008121329057234384
7.43550e-06	-0.0081160959808585
7.43575e-06	-0.0081108629044826
7.43600e-06	-0.008105629828106716
7.43625e-06	-0.008100396751730833
7.43650e-06	-0.00809516367535493
7.43675e-06	-0.008089930598979047
7.43700e-06	-0.008084697522603164
7.43725e-06	-0.008079464446227263
7.43750e-06	-0.00807423136985138
7.43775e-06	-0.008070558158142315
7.43800e-06	-0.008070560775913876
7.43825e-06	-0.008070563393685438
7.43850e-06	-0.008070566011456998
7.43875e-06	-0.00807056862922856
7.43900e-06	-0.00807057124700012
7.43925e-06	-0.008070573864771682
7.43950e-06	-0.008070576482543243
7.43975e-06	-0.008070579100314803
7.44000e-06	-0.008070581718086365
7.44025e-06	-0.008070584335857925
7.44050e-06	-0.008070586953629487
7.44075e-06	-0.008070589571401048
7.44100e-06	-0.00807059218917261
7.44125e-06	-0.00807059480694417
7.44150e-06	-0.008070597424715732
7.44175e-06	-0.008070600042487292
7.44200e-06	-0.008070602660258854
7.44225e-06	-0.008070605278030414
7.44250e-06	-0.008077292373542546
7.44275e-06	-0.00808567227609525
7.44300e-06	-0.008094052178647924
7.44325e-06	-0.008102432081200598
7.44350e-06	-0.0081108119837533
7.44375e-06	-0.008119191886305974
7.44400e-06	-0.008127571788858649
7.44425e-06	-0.00813595169141135
7.44450e-06	-0.008144331593964025
7.44475e-06	-0.0081527114965167
7.44500e-06	-0.008161091399069403
7.44525e-06	-0.008169471301622077
7.44550e-06	-0.008177851204174752
7.44575e-06	-0.008189171958407888
7.44600e-06	-0.00820742284544863
7.44625e-06	-0.00822567373248937
7.44650e-06	-0.008243924619530173
7.44675e-06	-0.008262175506570914
7.44700e-06	-0.008280426393611717
