Time(s)	Current(A)
6.75000e-06	2.9918872143027296e-05
6.75025e-06	4.18500057744251e-05
6.75050e-06	5.342780120733022e-05
6.75075e-06	6.456093572680888e-05
6.75100e-06	7.516600806399082e-05
6.75125e-06	8.515961179069015e-05
6.75150e-06	9.445648361937158e-05
6.75175e-06	0.0001029313031635366
6.75200e-06	0.00011022707270402452
6.75225e-06	0.00011581054667471386
6.75250e-06	0.00011939355625019016
6.75275e-06	0.00012096914878787551
6.75300e-06	0.00012058378309140255
6.75325e-06	0.00011828393616374554
6.75350e-06	0.00011411489357990016
6.75375e-06	0.00010809687285934386
6.75400e-06	0.00010010496810922475
6.75425e-06	8.99038920825327e-05
6.75450e-06	7.74118925332443e-05
6.75475e-06	6.272338076708768e-05
6.75500e-06	4.5966220220375796e-05
6.75525e-06	2.7268267053646385e-05
6.75550e-06	6.756636583320802e-06
6.75575e-06	-1.5457274531737165e-05
6.75600e-06	-3.9352971632322036e-05
6.75625e-06	-6.49790919615309e-05
6.75650e-06	-9.228810254686059e-05
6.75675e-06	-0.00012112212641237346
6.75700e-06	-0.0001513023417431346
6.75725e-06	-0.00018268442748836002
6.75750e-06	-0.0002153671705282735
6.75775e-06	-0.0002481945081500246
6.75800e-06	-0.00028261689870102047
6.75825e-06	-0.0003170392892520163
6.75850e-06	-0.0003515336868106247
6.75875e-06	-0.00038682240865750697
6.75900e-06	-0.0004221111305043892
6.75925e-06	-0.000457399852351391
6.75950e-06	-0.0004925310404368796
6.75975e-06	-0.0005259244408089987
6.76000e-06	-0.0005593178411810047
6.76025e-06	-0.0005927112415530107
6.76050e-06	-0.0006258334241244647
6.76075e-06	-0.0006559637466814074
6.76100e-06	-0.000685815801180323
6.76125e-06	-0.000712598222808427
6.76150e-06	-0.0007390095582706682
6.76175e-06	-0.0007613273649951271
6.76200e-06	-0.0007830829097640777
6.76225e-06	-0.0007986360258639867
6.76250e-06	-0.0008135383629325147
6.76275e-06	-0.0008212618210438271
6.76300e-06	-0.000828502363739825
6.76325e-06	-0.0008300978185935818
6.76350e-06	-0.0008278695208892722
6.76375e-06	-0.0008218214664945631
6.76400e-06	-0.0008117855634357378
6.76425e-06	-0.0007974792113126477
6.76450e-06	-0.0007788346956366332
6.76475e-06	-0.0007560126595865971
6.76500e-06	-0.0007292160247447627
6.76525e-06	-0.0006986477952420395
6.76550e-06	-0.000664509822996982
6.76575e-06	-0.0006269850929071775
6.76600e-06	-0.0005861486978182169
6.76625e-06	-0.0005420039947628961
6.76650e-06	-0.0004946888881666269
6.76675e-06	-0.0004444844129398613
6.76700e-06	-0.0003916980146902739
6.76725e-06	-0.0003366370686477958
6.76750e-06	-0.00027960847863331114
6.76775e-06	-0.00022090707640779172
6.76800e-06	-0.00016076017451267972
6.76825e-06	-9.935012016766394e-05
6.76850e-06	-3.6943544921475085e-05
6.76875e-06	2.610019450782032e-05
6.76900e-06	8.938351979741081e-05
6.76925e-06	0.00015262660334501216
6.76950e-06	0.00021535799795285542
6.76975e-06	0.0002772469409709072
6.77000e-06	0.00033797094216182365
6.77025e-06	0.0003972357075836668
6.77050e-06	0.0004546941482633478
6.77075e-06	0.0005099430597300948
6.77100e-06	0.0005625689638648041
6.77125e-06	0.0006121583849673627
6.77150e-06	0.0006582957162489185
6.77175e-06	0.0007005209137678031
6.77200e-06	0.0007381326592235593
6.77225e-06	0.0007703109419474268
6.77250e-06	0.0007966208309347176
6.77275e-06	0.0008169973897394897
6.77300e-06	0.000831441413916862
6.77325e-06	0.0008399535048956789
6.77350e-06	0.0008425331277654783
6.77375e-06	0.0008391519205339252
6.77400e-06	0.0008296302717163868
6.77425e-06	0.0008137143584860848
6.77450e-06	0.0007913915105434521
6.77475e-06	0.0007628809379523337
6.77500e-06	0.0007284429308583768
6.77525e-06	0.0006883376483264458
6.77550e-06	0.0006428246891127336
6.77575e-06	0.0005921458639901016
6.77600e-06	0.0005364485468753584
6.77625e-06	0.0004758334772058481
6.77650e-06	0.0004105525246406648
6.77675e-06	0.0003410028000684126
6.77700e-06	0.0002676069844668685
6.77725e-06	0.00019078782492034036
6.77750e-06	0.00011096752542241213
6.77775e-06	2.8557295063173474e-05
6.77800e-06	-5.609097150957988e-05
6.77825e-06	-0.00014269748429059578
6.77850e-06	-0.0002311897689941299
6.77875e-06	-0.00031975149169741017
6.77900e-06	-0.00040907919942918824
6.77925e-06	-0.0004984069071606637
6.77950e-06	-0.000587552133895455
6.77975e-06	-0.0006746843747741683
6.78000e-06	-0.0007614819745636323
6.78025e-06	-0.0008445880788481572
6.78050e-06	-0.0009271799461414664
6.78075e-06	-0.0010040991581474988
6.78100e-06	-0.0010803092175548385
6.78125e-06	-0.0011486964670394968
6.78150e-06	-0.0012162079944889328
6.78175e-06	-0.001274059249894823
6.78200e-06	-0.001331097731214238
6.78225e-06	-0.0013791703324171135
6.78250e-06	-0.0014264777514924993
6.78275e-06	-0.0014653442872529616
6.78300e-06	-0.001503377521054732
6.78325e-06	-0.0015322184275072175
6.78350e-06	-0.0015601715941927197
6.78375e-06	-0.0015783319187364342
6.78400e-06	-0.0015956938237065242
6.78425e-06	-0.0016042481961773501
6.78450e-06	-0.00161208383185981
6.78475e-06	-0.0016119909324329917
6.78500e-06	-0.0016111865145976025
6.78525e-06	-0.0016025331891031944
6.78550e-06	-0.00159303094117926
6.78575e-06	-0.0015741640532422705
6.78600e-06	-0.0015552971653052172
6.78625e-06	-0.0015356232960476858
6.78650e-06	-0.0015070474478805444
6.78675e-06	-0.0014784715997133064
6.78700e-06	-0.0014492423817347698
6.78725e-06	-0.0014128057053765866
6.78750e-06	-0.0013763690290182799
6.78775e-06	-0.0013395065134055974
6.78800e-06	-0.0012979464763440253
6.78825e-06	-0.001256189259464504
6.78850e-06	-0.0012122569109747426
6.78875e-06	-0.00116821940249578
6.78900e-06	-0.0011230218522882505
6.78925e-06	-0.001077802216354396
6.78950e-06	-0.0010323389481747955
6.78975e-06	-0.0009869554692179313
6.79000e-06	-0.0009424521617822697
6.79025e-06	-0.000898159000154863
6.79050e-06	-0.0008561840006786389
6.79075e-06	-0.0008145265397629632
6.79100e-06	-0.0007763719127991738
6.79125e-06	-0.0007386341254992545
6.79150e-06	-0.0007054945832884074
6.79175e-06	-0.0006727299009276943
6.79200e-06	-0.000644100375595914
6.79225e-06	-0.0006156338685672647
6.79250e-06	-0.0005889656503698734
6.79275e-06	-0.0005624766386117035
6.79300e-06	-0.0005379644903822982
6.79325e-06	-0.0005136961257563881
6.79350e-06	-0.0004921169888008363
6.79375e-06	-0.00047075771488950716
6.79400e-06	-0.00045182379598033743
6.79425e-06	-0.0004329794307006647
6.79450e-06	-0.000415122950146858
6.79475e-06	-0.00039740320112433025
6.79500e-06	-0.00038119176608076677
6.79525e-06	-0.0003649803310371484
6.79550e-06	-0.00034898110765204163
6.79575e-06	-0.00033532283523912557
6.79600e-06	-0.00032166456282616327
6.79625e-06	-0.0003080898525133408
6.79650e-06	-0.00029543693311844535
6.79675e-06	-0.00028286945782746023
6.79700e-06	-0.00027124453423068076
6.79725e-06	-0.00025961961063390124
6.79750e-06	-0.00024813217653045895
6.79775e-06	-0.000238161417644072
6.79800e-06	-0.00022819065875765126
6.79825e-06	-0.0002182800506174835
6.79850e-06	-0.00020903297787795686
6.79875e-06	-0.00019985125236013598
6.79900e-06	-0.00019139038564592914
6.79925e-06	-0.0001829295189317223
6.79950e-06	-0.0001745737799530487
6.79975e-06	-0.00016737772690538424
6.80000e-06	-0.00016018167385771978
6.80025e-06	-0.00015304315134566102
6.80050e-06	-0.00014653926014583383
6.80075e-06	-0.0001400846094723608
6.80100e-06	-0.00013417314129337562
6.80125e-06	-0.00012830836277564212
6.80150e-06	-0.00012299613405415428
6.80175e-06	-0.00011815244839403725
6.80200e-06	-0.00011399668776832758
6.80225e-06	-0.00011086047159126001
6.80250e-06	-0.00010892316510899939
6.80275e-06	-0.00010818811285134786
6.80300e-06	-0.00010862516264520024
6.80325e-06	-0.00011020415322721139
6.80350e-06	-0.00011289563445280977
6.80375e-06	-0.00011668594763753448
6.80400e-06	-0.00012165292652157219
6.80425e-06	-0.00012794469218825065
6.80450e-06	-0.00013561395719657445
6.80475e-06	-0.00014460323249786383
6.80500e-06	-0.000154833983824685
6.80525e-06	-0.00016622770359442292
6.80550e-06	-0.00017870634625870595
6.80575e-06	-0.00019220175395167282
6.80600e-06	-0.00020674545830429934
6.80625e-06	-0.00022271121578838147
6.80650e-06	-0.0002388302930874015
6.80675e-06	-0.00025664067317370426
6.80700e-06	-0.0002745908053510673
6.80725e-06	-0.0002940825719305825
6.80750e-06	-0.0003135743385100317
6.80775e-06	-0.00033319148331561094
6.80800e-06	-0.0003541917014277117
6.80825e-06	-0.00037519191953974126
6.80850e-06	-0.00039619213765177086
6.80875e-06	-0.00041719235576387164
6.80900e-06	-0.000438202349139246
6.80925e-06	-0.00045921933105760285
6.80950e-06	-0.00048023631297603093
6.80975e-06	-0.0005012532948943878
6.81000e-06	-0.0005221289765436816
6.81025e-06	-0.0005414459455174731
6.81050e-06	-0.0005607629144911992
6.81075e-06	-0.0005798619983791186
6.81100e-06	-0.0005965575465384994
6.81125e-06	-0.0006132530946978801
6.81150e-06	-0.0006297146341428412
6.81175e-06	-0.0006435947747566057
6.81200e-06	-0.0006574749153703702
6.81225e-06	-0.0006715514562301425
6.81250e-06	-0.0006877945290776641
6.81275e-06	-0.0007040376019251857
6.81300e-06	-0.0007202806747727623
6.81325e-06	-0.0007365237476202839
6.81350e-06	-0.0007527668204678055
6.81375e-06	-0.0007690098933153821
6.81400e-06	-0.0007852529661629038
6.81425e-06	-0.0008045201796501574
6.81450e-06	-0.0008259494153867639
6.81475e-06	-0.0008473786511232977
6.81500e-06	-0.0008688078868599042
6.81525e-06	-0.0008902371225964381
6.81550e-06	-0.000911666358332972
6.81575e-06	-0.0009330955940695785
6.81600e-06	-0.0009549577751982394
6.81625e-06	-0.000981595867050513
6.81650e-06	-0.001008233958902877
6.81675e-06	-0.0010348720507551503
6.81700e-06	-0.001061510142607424
6.81725e-06	-0.001088148234459788
6.81750e-06	-0.0011147863263120616
6.81775e-06	-0.001141424418164335
6.81800e-06	-0.0011688161556678341
6.81825e-06	-0.001196746690423018
6.81850e-06	-0.001224677225178202
6.81875e-06	-0.0012526077599334805
6.81900e-06	-0.0012805382946886644
6.81925e-06	-0.001308468829443943
6.81950e-06	-0.0013363993641991269
6.81975e-06	-0.0013641070494236813
6.82000e-06	-0.0013893564350978395
6.82025e-06	-0.0014146058207719122
6.82050e-06	-0.001439855206445985
6.82075e-06	-0.0014629668933082713
6.82100e-06	-0.0014845502939749957
6.82125e-06	-0.0015061336946417198
6.82150e-06	-0.0015273148689927745
6.82175e-06	-0.0015440590011464644
6.82200e-06	-0.0015600844061863478
6.82225e-06	-0.001568181382857743
6.82250e-06	-0.0015753665020501143
6.82275e-06	-0.0015724927316231555
6.82300e-06	-0.0015687553730037909
6.82325e-06	-0.001555491593311439
6.82350e-06	-0.0015413925425695099
6.82375e-06	-0.0015180794430510916
6.82400e-06	-0.0014937745952316838
6.82425e-06	-0.0014585295655101553
6.82450e-06	-0.0014222652444338074
6.82475e-06	-0.0013747569082958272
6.82500e-06	-0.0013263529560331826
6.82525e-06	-0.0012680692759145622
6.82550e-06	-0.0012090011340124864
6.82575e-06	-0.0011412794309224833
6.82600e-06	-0.0010727686747338944
6.82625e-06	-0.0009955537096027606
6.82650e-06	-0.0009177831130697094
6.82675e-06	-0.000833568737908473
6.82700e-06	-0.0007456141212443454
6.82725e-06	-0.0006544424965790165
6.82750e-06	-0.0005605756292160527
6.82775e-06	-0.0004645026841113703
6.82800e-06	-0.00036652346944738917
6.82825e-06	-0.0002667889962849591
6.82850e-06	-0.00016564093474264813
6.82875e-06	-6.364498647599172e-05
6.82900e-06	3.859025950731257e-05
6.82925e-06	0.0001404563124344314
6.82950e-06	0.0002413456910219597
6.82975e-06	0.00034067136344717667
6.83000e-06	0.0004379648744123086
6.83025e-06	0.0005328511226036183
6.83050e-06	0.0006248354869430506
6.83075e-06	0.0007132831561843498
6.83100e-06	0.0007975323867822257
6.83125e-06	0.0008769216486706976
6.83150e-06	0.0009507892763181416
6.83175e-06	0.0010184741998835616
6.83200e-06	0.0010793512308830949
6.83225e-06	0.0011329565867695698
6.83250e-06	0.0011790566434972415
6.83275e-06	0.0012175334112687999
6.83300e-06	0.0012482810879086898
6.83325e-06	0.0012711940847201467
6.83350e-06	0.0012861667259212878
6.83375e-06	0.001293093671676301
6.83400e-06	0.0012918919550813056
6.83425e-06	0.0012825800732135164
6.83450e-06	0.001265320330825601
6.83475e-06	0.0012403478560274444
6.83500e-06	0.0012079051516103926
6.83525e-06	0.0011682348174292614
6.83550e-06	0.0011215793175709712
6.83575e-06	0.0010681815990220497
6.83600e-06	0.0010082985093785462
6.83625e-06	0.0009422503256626371
6.83650e-06	0.0008704476244697001
6.83675e-06	0.0007933461609004609
6.83700e-06	0.0007114066922842505
6.83725e-06	0.0006250898158424464
6.83750e-06	0.0005348560997672433
6.83775e-06	0.0004411662976100299
6.83800e-06	0.0003444898944594997
6.83825e-06	0.00024533606366047546
6.83850e-06	0.00014427048065043457
6.83875e-06	4.18799639928572e-05
6.83900e-06	-6.12963600533597e-05
6.83925e-06	-0.00016440228733959343
6.83950e-06	-0.0002667317408512227
6.83975e-06	-0.00036888410638709617
6.84000e-06	-0.00046889641006856613
6.84025e-06	-0.00056660915195468
6.84050e-06	-0.0006613598627142203
6.84075e-06	-0.0007524681776413758
6.84100e-06	-0.0008392520824116017
6.84125e-06	-0.0009210296257460079
6.84150e-06	-0.0009971219868892371
6.84175e-06	-0.001066919720418094
6.84200e-06	-0.0011302573177737055
6.84225e-06	-0.0011874738244868376
6.84250e-06	-0.001238773365799556
6.84275e-06	-0.0012837525900861498
6.84300e-06	-0.0013200436696818349
6.84325e-06	-0.001355226882788618
6.84350e-06	-0.001378188990111806
6.84375e-06	-0.0014000391476265371
6.84400e-06	-0.0014096231554112614
6.84425e-06	-0.0014182034552189327
6.84450e-06	-0.001415711643462888
6.84475e-06	-0.0014122617078952166
6.84500e-06	-0.0013982425091795298
6.84525e-06	-0.0013832932183498424
6.84550e-06	-0.0013580838878617606
6.84575e-06	-0.0013320134801314092
6.84600e-06	-0.001296444350154034
6.84625e-06	-0.0012601534983049188
6.84650e-06	-0.001215901182303116
6.84675e-06	-0.0011710272389744059
6.84700e-06	-0.0011192959952446393
6.84725e-06	-0.001067032200059836
6.84750e-06	-0.0010088937189513642
6.84775e-06	-0.0009503374426614959
6.84800e-06	-0.0008871723807871807
6.84825e-06	-0.000823795399956169
6.84850e-06	-0.0007579865194124776
6.84875e-06	-0.0006910763303806212
6.84900e-06	-0.0006234469564779311
6.84925e-06	-0.0005554804290976117
6.84950e-06	-0.00048755938968021847
6.84975e-06	-0.00042007698745195367
6.85000e-06	-0.0003534947056250206
6.85025e-06	-0.0002883516770808392
6.85050e-06	-0.00022516617064512277
6.85075e-06	-0.00016440418815443433
6.85100e-06	-0.00010651975905866988
6.85125e-06	-5.196693435213465e-05
6.85150e-06	-1.1990046896639284e-06
6.85175e-06	4.5348442212317674e-05
6.85200e-06	8.736668698424628e-05
6.85225e-06	0.00012474293911290748
6.85250e-06	0.00015742870371580393
6.85275e-06	0.00018533956966399232
6.85300e-06	0.00020837704717600333
6.85325e-06	0.00022644262704296655
6.85350e-06	0.0002394383215827973
6.85375e-06	0.0002472772396683432
6.85400e-06	0.000249951959671406
6.85425e-06	0.00024757783195371975
6.85450e-06	0.00024031043129873954
6.85475e-06	0.0002282828625225261
6.85500e-06	0.0002116193844293095
6.85525e-06	0.00019044426066124154
6.85550e-06	0.00016488208278970772
6.85575e-06	0.00013506437239901652
6.85600e-06	0.00010117243728612032
6.85625e-06	6.346444826001095e-05
6.85650e-06	2.2223807687965538e-05
6.85675e-06	-2.228021508853721e-05
6.85700e-06	-6.978389025301492e-05
6.85725e-06	-0.00012002349586919973
6.85750e-06	-0.0001727351431027161
6.85775e-06	-0.00022765060467437172
6.85800e-06	-0.0002845212987698234
6.85825e-06	-0.0003434079229442155
6.85850e-06	-0.00040245083004158673
6.85875e-06	-0.0004632177265849902
6.85900e-06	-0.0005239846231285995
6.85925e-06	-0.0005847048856482617
6.85950e-06	-0.0006449107185481202
6.85975e-06	-0.0007051165514481827
6.86000e-06	-0.0007649939012967497
6.86025e-06	-0.0008212476862537811
6.86050e-06	-0.0008775014712110032
6.86075e-06	-0.0009332563912914123
6.86100e-06	-0.000983508229111227
6.86125e-06	-0.0010332043726337158
6.86150e-06	-0.0010767705367286705
6.86175e-06	-0.0011196946375469027
6.86200e-06	-0.0011555360047543703
6.86225e-06	-0.0011907419223077984
6.86250e-06	-0.0012189380625003431
6.86275e-06	-0.0012464737257739833
6.86300e-06	-0.0012667235307215086
6.86325e-06	-0.0012862766168712405
6.86350e-06	-0.0012981440529859392
6.86375e-06	-0.0013093084469633172
6.86400e-06	-0.0013127174368323868
6.86425e-06	-0.0013154752872310568
6.86450e-06	-0.0013110502826407541
6.86475e-06	-0.001306006229406827
6.86500e-06	-0.0012941333217720025
6.86525e-06	-0.0012816664314627651
6.86550e-06	-0.001262647194674547
6.86575e-06	-0.0012429572678308283
6.86600e-06	-0.0012158688194254708
6.86625e-06	-0.001188780371020205
6.86650e-06	-0.0011610383141231215
6.86675e-06	-0.0011260861659487568
6.86700e-06	-0.0010911340177745107
6.86725e-06	-0.0010556754380035543
6.86750e-06	-0.0010146303059102837
6.86775e-06	-0.0009735851738171521
6.86800e-06	-0.0009322517613069636
6.86825e-06	-0.0008877382675304914
6.86850e-06	-0.0008431054818023076
6.86875e-06	-0.0007971567617308428
6.86900e-06	-0.000751176441895114
6.86925e-06	-0.0007048475384863929
6.86950e-06	-0.000658576014424273
6.86975e-06	-0.000612937453873831
6.87000e-06	-0.000567460017528401
6.87025e-06	-0.0005237599758131972
6.87050e-06	-0.00048032867118720057
6.87075e-06	-0.0004398618613090748
6.87100e-06	-0.0003996607429634999
6.87125e-06	-0.0003626017672478999
6.87150e-06	-0.0003281107501889047
6.87175e-06	-0.00029651318428964337
6.87200e-06	-0.0002682186733152342
6.87225e-06	-0.00024364545361400187
6.87250e-06	-0.00022301266624266547
6.87275e-06	-0.00020637179756953863
6.87300e-06	-0.0001937465793492597
6.87325e-06	-0.00018516071423269113
6.87350e-06	-0.0001806384164197093
6.87375e-06	-0.0001802144747555115
6.87400e-06	-0.00018397627459221228
6.87425e-06	-0.00019201664433703128
6.87450e-06	-0.00020430364144512786
6.87475e-06	-0.00022070035468894518
6.87500e-06	-0.00024105246342655498
6.87525e-06	-0.00026520566765331384
6.87550e-06	-0.0002930059405257533
6.87575e-06	-0.0003243059108776576
6.87600e-06	-0.0003589911740493955
6.87625e-06	-0.00039695074509282606
6.87650e-06	-0.0004379954109901206
6.87675e-06	-0.0004819667805621481
6.87700e-06	-0.0005293736316433256
6.87725e-06	-0.0005771222018915585
6.87750e-06	-0.0006286403473747202
6.87775e-06	-0.0006804633532935544
6.87800e-06	-0.0007356493381136819
6.87825e-06	-0.0007908353229339964
6.87850e-06	-0.000846194840766892
6.87875e-06	-0.0009034686373714113
6.87900e-06	-0.0009607424339757367
6.87925e-06	-0.0010179414455198752
6.87950e-06	-0.0010743154875045447
6.87975e-06	-0.0011306895294890234
6.88000e-06	-0.0011867423890486546
6.88025e-06	-0.0012392522184508025
6.88050e-06	-0.0012917620478527724
6.88075e-06	-0.0013438051886767112
6.88100e-06	-0.0013907001906918052
6.88125e-06	-0.0014370735099437603
6.88150e-06	-0.001477692038090057
6.88175e-06	-0.001517582927420657
6.88200e-06	-0.001549447081573229
6.88225e-06	-0.0015803479061636708
6.88250e-06	-0.0016006220419135266
6.88275e-06	-0.0016199063162008905
6.88300e-06	-0.0016282712227354715
6.88325e-06	-0.0016356559535960925
6.88350e-06	-0.0016322281626525593
6.88375e-06	-0.0016277807174963697
6.88400e-06	-0.0016120852545616969
6.88425e-06	-0.0015953120371973537
6.88450e-06	-0.0015666498864715342
6.88475e-06	-0.001536982919851522
6.88500e-06	-0.0014962316200306817
6.88525e-06	-0.0014545711043060894
6.88550e-06	-0.001402880838769781
6.88575e-06	-0.0013503461727689093
6.88600e-06	-0.0012884967495501811
6.88625e-06	-0.001225856057400369
6.88650e-06	-0.001154486713031792
6.88675e-06	-0.0010826066150688032
6.88700e-06	-0.0010048016997674047
6.88725e-06	-0.0009235380994452908
6.88750e-06	-0.0008392655574823999
6.88775e-06	-0.0007524186273036569
6.88800e-06	-0.0006633470543824393
6.88825e-06	-0.0005723487331632595
6.88850e-06	-0.00047983593093113704
6.88875e-06	-0.0003863385554965539
6.88900e-06	-0.00029240785041768723
6.88925e-06	-0.00019859493006104838
6.88950e-06	-0.00010545049466670318
6.88975e-06	-1.3515663442805728e-05
6.89000e-06	7.67215463607351e-05
6.89025e-06	0.00016480569636466785
6.89050e-06	0.00025020969083293165
6.89075e-06	0.0003323327952726489
6.89100e-06	0.0004105610085919532
6.89125e-06	0.0004842803636400941
6.89150e-06	0.0005528829846065723
6.89175e-06	0.0006158944523769381
6.89200e-06	0.0006736572880812058
6.89225e-06	0.0007273158062691609
6.89250e-06	0.000777511247087078
6.89275e-06	0.000823934555322364
6.89300e-06	0.0008648983131056772
