Time(s)	Current(A)
6.00000e-06	-0.0061756189532629294
6.00025e-06	-0.006187525705613188
6.00050e-06	-0.0061983352119471995
6.00075e-06	-0.00620914471828121
6.00100e-06	-0.0062199542246152584
6.00125e-06	-0.00623076373094927
6.00150e-06	-0.006241573237283282
6.00175e-06	-0.006252382743617329
6.00200e-06	-0.006263192249951341
6.00225e-06	-0.0062740017562853525
6.00250e-06	-0.0062848112626194
6.00275e-06	-0.006295446881332715
6.00300e-06	-0.0063055625523486345
6.00325e-06	-0.006315678223364588
6.00350e-06	-0.006325793894380508
6.00375e-06	-0.006335909565396461
6.00400e-06	-0.006346025236412381
6.00425e-06	-0.006356140907428301
6.00450e-06	-0.006366256578444254
6.00475e-06	-0.006376372249460174
6.00500e-06	-0.006386487920476093
6.00525e-06	-0.006396603591492047
6.00550e-06	-0.006407926737712289
6.00575e-06	-0.006419651050143826
6.00600e-06	-0.006431375362575403
6.00625e-06	-0.00644309967500694
6.00650e-06	-0.0064548239874384775
6.00675e-06	-0.006466548299870054
6.00700e-06	-0.006478272612301592
6.00725e-06	-0.006489996924733129
6.00750e-06	-0.006501721237164706
6.00775e-06	-0.006513445549596243
6.00800e-06	-0.00652516986202782
6.00825e-06	-0.006536894174459357
6.00850e-06	-0.006548618486890894
6.00875e-06	-0.006558179696299137
6.00900e-06	-0.0065670222459441215
6.00925e-06	-0.006575864795589105
6.00950e-06	-0.006584707345234119
6.00975e-06	-0.006593549894879102
6.01000e-06	-0.006602392444524086
6.01025e-06	-0.0066112349941691
6.01050e-06	-0.006620077543814083
6.01075e-06	-0.006628920093459067
6.01100e-06	-0.006637762643104081
6.01125e-06	-0.006646605192749065
6.01150e-06	-0.006655447742394048
6.01175e-06	-0.006664290292039062
6.01200e-06	-0.006669308065693976
6.01225e-06	-0.006673055112722597
6.01250e-06	-0.006676802159751204
6.01275e-06	-0.006680549206779812
6.01300e-06	-0.006684296253808433
6.01325e-06	-0.0066880433008370405
6.01350e-06	-0.006691790347865648
6.01375e-06	-0.006695537394894269
6.01400e-06	-0.0066992844419228766
6.01425e-06	-0.006703031488951484
6.01450e-06	-0.006706778535980105
6.01475e-06	-0.006710525583008713
6.01500e-06	-0.00671427263003732
6.01525e-06	-0.006718019677065941
6.01550e-06	-0.006721766724094549
6.01575e-06	-0.0067255137711231565
6.01600e-06	-0.006729260818151777
6.01625e-06	-0.006733007865180385
6.01650e-06	-0.006735003476287864
6.01675e-06	-0.0067364171980860595
6.01700e-06	-0.006737830919884254
6.01725e-06	-0.006739244641682454
6.01750e-06	-0.006740658363480648
6.01775e-06	-0.006742072085278843
6.01800e-06	-0.006743485807077043
6.01825e-06	-0.006744899528875237
6.01850e-06	-0.006746313250673432
6.01875e-06	-0.006747726972471632
6.01900e-06	-0.006749140694269826
6.01925e-06	-0.006750554416068021
6.01950e-06	-0.006751968137866221
6.01975e-06	-0.006753381859664415
6.02000e-06	-0.006754795581462611
6.02025e-06	-0.00675620930326081
6.02050e-06	-0.006757623025059005
6.02075e-06	-0.006759036746857204
6.02100e-06	-0.006761465271918624
6.02125e-06	-0.006764230950719267
6.02150e-06	-0.006766996629519919
6.02175e-06	-0.006769762308320561
6.02200e-06	-0.006772527987121204
6.02225e-06	-0.006775293665921856
6.02250e-06	-0.006778059344722498
6.02275e-06	-0.006780825023523141
6.02300e-06	-0.006789659307201651
6.02325e-06	-0.006800509797272531
6.02350e-06	-0.00681136028734341
6.02375e-06	-0.006822210777414326
6.02400e-06	-0.0068330612674852055
6.02425e-06	-0.006843911757556085
6.02450e-06	-0.006854762247627001
6.02475e-06	-0.00686561273769788
6.02500e-06	-0.00688264287643335
6.02525e-06	-0.0069017261142566635
6.02550e-06	-0.006920809352079978
6.02575e-06	-0.006939892589903357
6.02600e-06	-0.006958975827726671
6.02625e-06	-0.006978059065549986
6.02650e-06	-0.006997142303373364
6.02675e-06	-0.007016225541196679
6.02700e-06	-0.0070362760280524355
6.02725e-06	-0.0070592187214087235
6.02750e-06	-0.007082161414764933
6.02775e-06	-0.007105104108121143
6.02800e-06	-0.007128046801477431
6.02825e-06	-0.007150989494833641
6.02850e-06	-0.007173932188189851
6.02875e-06	-0.007196874881546139
6.02900e-06	-0.007219817574902349
6.02925e-06	-0.0072400240538514115
6.02950e-06	-0.007259321465051071
6.02975e-06	-0.00727861887625073
6.03000e-06	-0.007297916287450455
6.03025e-06	-0.007317213698650114
6.03050e-06	-0.007336511109849773
6.03075e-06	-0.007355808521049497
6.03100e-06	-0.007375105932249156
6.03125e-06	-0.007382801138780713
6.03150e-06	-0.007386641680247797
6.03175e-06	-0.007390482221714867
6.03200e-06	-0.007394322763181938
6.03225e-06	-0.007398163304649021
6.03250e-06	-0.007402003846116092
6.03275e-06	-0.007405844387583163
6.03300e-06	-0.007409684929050246
6.03325e-06	-0.00739763991913659
6.03350e-06	-0.007380317164028254
6.03375e-06	-0.007362994408919977
6.03400e-06	-0.0073456716538117
6.03425e-06	-0.0073283488987033645
6.03450e-06	-0.007311026143595087
6.03475e-06	-0.007280879344921562
6.03500e-06	-0.007246471942843135
6.03525e-06	-0.007212064540764825
6.03550e-06	-0.007177657138686514
6.03575e-06	-0.007143249736608087
6.03600e-06	-0.007108842334529776
6.03625e-06	-0.00706555762268643
6.03650e-06	-0.007019323552786208
6.03675e-06	-0.006973089482886143
6.03700e-06	-0.0069268554129860785
6.03725e-06	-0.006880621343085857
6.03750e-06	-0.006833189093054995
6.03775e-06	-0.006782174121050783
6.03800e-06	-0.006731159149046744
6.03825e-06	-0.006680144177042705
6.03850e-06	-0.006629129205038493
6.03875e-06	-0.006578114233034454
6.03900e-06	-0.006527721367544708
6.03925e-06	-0.006477535187966233
6.03950e-06	-0.006428956164546857
6.03975e-06	-0.006380911095567593
6.04000e-06	-0.006335289868342001
6.04025e-06	-0.006290473927559573
6.04050e-06	-0.006250106211470046
6.04075e-06	-0.006211216353839979
6.04100e-06	-0.006172326496210044
6.04125e-06	-0.006143196174165487
6.04150e-06	-0.0061173083169741346
6.04175e-06	-0.00609142045978287
6.04200e-06	-0.006065532602591518
6.04225e-06	-0.006039644745400252
6.04250e-06	-0.006013756888208988
6.04275e-06	-0.005987869031017635
6.04300e-06	-0.005961981173826371
6.04325e-06	-0.0059477339700160356
6.04350e-06	-0.005937354205298928
6.04375e-06	-0.0059269744405818555
6.04400e-06	-0.005916594675864783
6.04425e-06	-0.005906214911147676
6.04450e-06	-0.005895835146430604
6.04475e-06	-0.005885455381713532
6.04500e-06	-0.005875075616996424
6.04525e-06	-0.005873621800428762
6.04550e-06	-0.0058751335013184055
6.04575e-06	-0.005876645202208055
6.04600e-06	-0.005878156903097699
6.04625e-06	-0.005879668603987347
6.04650e-06	-0.0058811803048769914
6.04675e-06	-0.005882692005766635
6.04700e-06	-0.005884203706656284
6.04725e-06	-0.00588725111052
6.04750e-06	-0.0058948904756811644
6.04775e-06	-0.005902529840842355
6.04800e-06	-0.0059101692060035205
6.04825e-06	-0.005917808571164685
6.04850e-06	-0.005925447936325876
6.04875e-06	-0.005933087301487041
6.04900e-06	-0.005940726666648206
6.04925e-06	-0.005948366031809397
6.04950e-06	-0.005956476274732849
6.04975e-06	-0.005964742959997304
6.05000e-06	-0.005973009645261787
6.05025e-06	-0.005980897945728265
6.05050e-06	-0.005987654824053202
6.05075e-06	-0.005994411702378116
6.05100e-06	-0.00600116858070303
6.05125e-06	-0.0060077242607466195
6.05150e-06	-0.0060142130955648234
6.05175e-06	-0.006020701930383028
6.05200e-06	-0.0060300159299500455
6.05225e-06	-0.006040268549733129
6.05250e-06	-0.006050521169516212
6.05275e-06	-0.006065389815156842
6.05300e-06	-0.0060817920687718475
6.05325e-06	-0.006098194322386852
6.05350e-06	-0.006114596576001912
6.05375e-06	-0.006130998829616917
6.05400e-06	-0.006147401083231922
6.05425e-06	-0.0061638033368469815
6.05450e-06	-0.0061875928862937975
6.05475e-06	-0.006213836758170058
6.05500e-06	-0.00624008063004623
6.05525e-06	-0.006266324501922401
6.05550e-06	-0.006292568373798662
6.05575e-06	-0.006318812245674834
6.05600e-06	-0.006345056117551005
6.05625e-06	-0.006376613967595607
6.05650e-06	-0.006409937310197057
6.05675e-06	-0.006443260652798508
6.05700e-06	-0.006476583995400072
6.05725e-06	-0.006509907338001523
6.05750e-06	-0.006543230680602974
6.05775e-06	-0.006576554023204537
6.05800e-06	-0.006609910711772125
6.05825e-06	-0.0066433671093254175
6.05850e-06	-0.006676823506878823
6.05875e-06	-0.0067102799044321156
6.05900e-06	-0.006743736301985522
6.05925e-06	-0.0067771926995388145
6.05950e-06	-0.006810649097092106
6.05975e-06	-0.0068441054946455126
6.06000e-06	-0.006873892929687384
6.06025e-06	-0.006902461404884143
6.06050e-06	-0.0069310298800809985
6.06075e-06	-0.006955453700641738
6.06100e-06	-0.006978500519514031
6.06125e-06	-0.007001547338386402
6.06150e-06	-0.007017888352362364
6.06175e-06	-0.007032001459437658
6.06200e-06	-0.007046114566513
6.06225e-06	-0.007052073517364217
6.06250e-06	-0.007055323367488338
6.06275e-06	-0.007058573217612469
6.06300e-06	-0.007049955984011039
6.06325e-06	-0.007037396083104041
6.06350e-06	-0.007024836182197083
6.06375e-06	-0.007012276281290127
6.06400e-06	-0.006999716380383127
6.06425e-06	-0.0069821983163903725
6.06450e-06	-0.0069498546686936275
6.06475e-06	-0.006917511020996773
6.06500e-06	-0.006885167373300027
6.06525e-06	-0.006852823725603282
6.06550e-06	-0.006820480077906427
6.06575e-06	-0.006776784711747758
6.06600e-06	-0.006729317900955074
6.06625e-06	-0.006681851090162228
6.06650e-06	-0.006634384279369544
6.06675e-06	-0.006586917468576859
6.06700e-06	-0.006532980788165272
6.06725e-06	-0.006476894586944521
6.06750e-06	-0.006420808385723581
6.06775e-06	-0.006364722184502829
6.06800e-06	-0.006308635983282079
6.06825e-06	-0.00625072021758001
6.06850e-06	-0.006192196605483104
6.06875e-06	-0.006133847585491794
6.06900e-06	-0.006076010266008633
6.06925e-06	-0.006019011562485704
6.06950e-06	-0.00596313830155567
6.06975e-06	-0.005908682930017956
6.07000e-06	-0.005855984134289885
6.07025e-06	-0.005806384823832051
6.07050e-06	-0.005757662450510233
6.07075e-06	-0.005719733504465536
6.07100e-06	-0.0056853905188653025
6.07125e-06	-0.005651047533264953
6.07150e-06	-0.00561670454766472
6.07175e-06	-0.005582361562064371
6.07200e-06	-0.005548018576464138
6.07225e-06	-0.005513675590863905
6.07250e-06	-0.005479332605263555
6.07275e-06	-0.005444989619663322
6.07300e-06	-0.005423148174496124
6.07325e-06	-0.005405460185718109
6.07350e-06	-0.005387772196940154
6.07375e-06	-0.005370084208162198
6.07400e-06	-0.005352396219384183
6.07425e-06	-0.005334708230606227
6.07450e-06	-0.005317020241828272
6.07475e-06	-0.005299332253050257
6.07500e-06	-0.005281644264272301
6.07525e-06	-0.005272451723826262
6.07550e-06	-0.005266081673483782
6.07575e-06	-0.005259711623141324
6.07600e-06	-0.005253341572798844
6.07625e-06	-0.005246971522456386
6.07650e-06	-0.005240601472113928
6.07675e-06	-0.005234231421771447
6.07700e-06	-0.0052278613714289894
6.07725e-06	-0.0052214913210865315
6.07750e-06	-0.005216570735546781
6.07775e-06	-0.00521598424740966
6.07800e-06	-0.005215397759272541
6.07825e-06	-0.005214811271135419
6.07850e-06	-0.005214224782998299
6.07875e-06	-0.005213638294861179
6.07900e-06	-0.005213051806724058
6.07925e-06	-0.0052124653185869375
6.07950e-06	-0.005211878830449818
6.07975e-06	-0.005211292342312697
6.08000e-06	-0.005211456818228374
6.08025e-06	-0.005211870791112791
6.08050e-06	-0.005212284763997208
6.08075e-06	-0.005212540398095156
6.08100e-06	-0.005212743426416423
6.08125e-06	-0.005213512000337044
6.08150e-06	-0.005214468468621174
6.08175e-06	-0.005218132250526956
6.08200e-06	-0.0052226954983119285
6.08225e-06	-0.005230261590499919
6.08250e-06	-0.005238825334404181
6.08275e-06	-0.005250636538077301
6.08300e-06	-0.005263526663391696
6.08325e-06	-0.005276416788706134
6.08350e-06	-0.005296644442906209
6.08375e-06	-0.005319309885184196
6.08400e-06	-0.005341975327462261
6.08425e-06	-0.0053646407697402485
6.08450e-06	-0.005387306212018313
6.08475e-06	-0.0054099716542963016
6.08500e-06	-0.005441468241407934
6.08525e-06	-0.005475898848940512
6.08550e-06	-0.005510329456472974
6.08575e-06	-0.005544760064005435
6.08600e-06	-0.005579190671538013
6.08625e-06	-0.005613621279070474
6.08650e-06	-0.005654028290754982
6.08675e-06	-0.005696420876468244
6.08700e-06	-0.005738813462181363
6.08725e-06	-0.0057812060478944815
6.08750e-06	-0.005823598633607744
6.08775e-06	-0.005865991219320863
6.08800e-06	-0.005908605684561093
6.08825e-06	-0.005951883599841849
6.08850e-06	-0.005995161515122459
6.08875e-06	-0.006038439430403216
6.08900e-06	-0.0060817173456838266
6.08925e-06	-0.006124995260964436
6.08950e-06	-0.006168273176245193
6.08975e-06	-0.006207981787358061
6.09000e-06	-0.0062465045486731685
6.09025e-06	-0.006285027309988407
6.09050e-06	-0.006318991102667652
6.09075e-06	-0.006351440243812404
6.09100e-06	-0.006383889384957266
6.09125e-06	-0.006410072318144364
6.09150e-06	-0.006434173394171122
6.09175e-06	-0.00645827447019796
6.09200e-06	-0.006475495557010833
6.09225e-06	-0.006490430866699083
6.09250e-06	-0.006505366176387384
6.09275e-06	-0.006512435935670919
6.09300e-06	-0.006516892479347816
6.09325e-06	-0.006521349023024697
6.09350e-06	-0.006525366214555134
6.09375e-06	-0.0065227120676128155
6.09400e-06	-0.017288257748097828
6.09425e-06	-0.029996554448239624
6.09450e-06	-0.024396172499440916
6.09475e-06	-0.020115735033336597
6.09500e-06	-0.010458912283998995
6.09525e-06	0.001118625078832734
6.09550e-06	-0.0006962865597401071
6.09575e-06	-0.003204551403021671
6.09600e-06	-0.00932822688897774
6.09625e-06	-0.014188585603061177
6.09650e-06	-0.014241306193206054
6.09675e-06	-0.011179085537181882
6.09700e-06	-0.006024781100155086
6.09725e-06	-0.0020198464665718164
6.09750e-06	-0.001219048794186685
6.09775e-06	-0.0029499356533499582
6.09800e-06	-0.006968588468309144
6.09825e-06	-0.010097817745651643
6.09850e-06	-0.01019340601532077
6.09875e-06	-0.00832142150491529
6.09900e-06	-0.005126977405546622
6.09925e-06	-0.0026438076064177318
6.09950e-06	-0.002161407875819268
6.09975e-06	-0.0032603362842455685
6.10000e-06	-0.00578917689242601
6.10025e-06	-0.007758882378704894
6.10050e-06	-0.00782735909927789
6.10075e-06	-0.0066632702365776834
6.10100e-06	-0.004671394149297042
6.10125e-06	-0.0031260216559830943
6.10150e-06	-0.0028347867881750623
6.10175e-06	-0.0035346422268629145
6.10200e-06	-0.005130563234470725
6.10225e-06	-0.006376614715487811
6.10250e-06	-0.006432215104743753
6.10275e-06	-0.005716315927563638
6.10300e-06	-0.004482524597100449
6.10325e-06	-0.003529048990961238
6.10350e-06	-0.003361714096881835
6.10375e-06	-0.003815648846117205
6.10400e-06	-0.004831236308607852
6.10425e-06	-0.005627964551168935
6.10450e-06	-0.005679291025829352
6.10475e-06	-0.005247652469401122
6.10500e-06	-0.004491893143278788
6.10525e-06	-0.0039119628644419605
6.10550e-06	-0.0038246248483298794
6.10575e-06	-0.004126508442338252
6.10600e-06	-0.004780179750150721
6.10625e-06	-0.005296660864491168
6.10650e-06	-0.005346096625645888
6.10675e-06	-0.005092854761432654
6.10700e-06	-0.004636400986143103
6.10725e-06	-0.004289849812925775
6.10750e-06	-0.004251543962995283
6.10775e-06	-0.004456648930177444
6.10800e-06	-0.004881636818403822
6.10825e-06	-0.0052201482411109845
6.10850e-06	-0.005265521206671327
6.10875e-06	-0.005120679451602293
6.10900e-06	-0.004847883783896074
6.10925e-06	-0.004643213122541016
6.10950e-06	-0.0046308388200908945
6.10975e-06	-0.004770073918671694
6.11000e-06	-0.00504610859616239
6.11025e-06	-0.005266977604709209
6.11050e-06	-0.005303180407518711
6.11075e-06	-0.005219143135297539
6.11100e-06	-0.005053823262600764
6.11125e-06	-0.00493022974170741
6.11150e-06	-0.004926800605712648
6.11175e-06	-0.005018803442725534
6.11200e-06	-0.005197304555227119
6.11225e-06	-0.005342076077365372
6.11250e-06	-0.0053719544751412475
6.11275e-06	-0.00532725283766205
6.11300e-06	-0.005232328467327646
6.11325e-06	-0.005164183094172122
6.11350e-06	-0.005171893653049725
6.11375e-06	-0.00523991006238484
6.11400e-06	-0.005362579927591478
6.11425e-06	-0.005464538730032219
6.11450e-06	-0.005494897875330917
6.11475e-06	-0.005478863459109765
6.11500e-06	-0.0054316444995982285
6.11525e-06	-0.005401423405759803
6.11550e-06	-0.00541888726355253
6.11575e-06	-0.005474239864777616
6.11600e-06	-0.005563884961737532
6.11625e-06	-0.005640561307183513
6.11650e-06	-0.005672343052730132
6.11675e-06	-0.00567497097407764
6.11700e-06	-0.005657921995448191
6.11725e-06	-0.005651325778015425
6.11750e-06	-0.005674351155400372
6.11775e-06	-0.005720806973780612
6.11800e-06	-0.005788386286459644
6.11825e-06	-0.005847432154555474
6.11850e-06	-0.0058778961092467155
6.11875e-06	-0.005889587765972086
6.11900e-06	-0.005888392919722238
6.11925e-06	-0.0058931329389685545
6.11950e-06	-0.005915761433111503
6.11975e-06	-0.005952346915791863
6.12000e-06	-0.0060013910053688625
6.12025e-06	-0.006044264026397731
6.12050e-06	-0.006068356512009491
6.12075e-06	-0.00607976195709594
6.12100e-06	-0.006082115048204803
6.12125e-06	-0.00608712154753445
6.12150e-06	-0.0061021341583317205
6.12175e-06	-0.0061245857395111816
6.12200e-06	-0.006153532613617852
6.12225e-06	-0.006177363918130614
6.12250e-06	-0.006188253421617103
6.12275e-06	-0.006188047739007815
6.12300e-06	-0.006183853294962391
6.12325e-06	-0.006181055165716927
6.12350e-06	-0.006182263978656698
6.12375e-06	-0.006186959104408
6.12400e-06	-0.0061926113011133415
6.12425e-06	-0.006198263497818702
6.12450e-06	-0.006195931098504458
6.12475e-06	-0.006184260676342643
6.12500e-06	-0.006169918929575233
6.12525e-06	-0.00615557718280787
6.12550e-06	-0.006143334484113252
6.12575e-06	-0.006133184232250758
6.12600e-06	-0.006123493199980168
6.12625e-06	-0.006113802167709577
6.12650e-06	-0.006099042462078394
6.12675e-06	-0.006078520804680966
6.12700e-06	-0.00605641462160896
6.12725e-06	-0.006034308438537028
6.12750e-06	-0.0060137912214769905
6.12775e-06	-0.005995240856068867
6.12800e-06	-0.005977294890937743
6.12825e-06	-0.005959348925806619
6.12850e-06	-0.005938842144325283
6.12875e-06	-0.005915950891869818
6.12900e-06	-0.005892612258590813
6.12925e-06	-0.005869273625311728
6.12950e-06	-0.005847885103576646
6.12975e-06	-0.005829521296511268
6.13000e-06	-0.005812308903128025
6.13025e-06	-0.00579509650974484
6.13050e-06	-0.005777573979035738
6.13075e-06	-0.0057603156341831906
6.13100e-06	-0.00574337394522836
6.13125e-06	-0.005728789132710443
6.13150e-06	-0.005715784920380658
6.13175e-06	-0.0057027807080508724
6.13200e-06	-0.005690147722109815
6.13225e-06	-0.005677763693004509
6.13250e-06	-0.005665379663899204
6.13275e-06	-0.005652995634793856
6.13300e-06	-0.005640802956144733
6.13325e-06	-0.005628738603513164
6.13350e-06	-0.0056166742508815546
6.13375e-06	-0.005604609898249986
6.13400e-06	-0.0055922717055709005
6.13425e-06	-0.005579749866594581
6.13450e-06	-0.005567228027618304
6.13475e-06	-0.005554706188642026
6.13500e-06	-0.0055421843496657065
6.13525e-06	-0.005529662510689429
6.13550e-06	-0.00551714067171311
6.13575e-06	-0.005504618832736833
6.13600e-06	-0.005492096993760555
6.13625e-06	-0.005479304287892624
6.13650e-06	-0.0054663299296253695
6.13675e-06	-0.005453355571358115
6.13700e-06	-0.005440381213090817
6.13725e-06	-0.005427406854823563
6.13750e-06	-0.0054144324965563085
6.13775e-06	-0.00540145813828901
6.13800e-06	-0.005388483780021756
6.13825e-06	-0.005375509421754502
6.13850e-06	-0.005362937306705627
6.13875e-06	-0.005350634949416106
6.13900e-06	-0.005338332592126584
6.13925e-06	-0.005326030234837021
6.13950e-06	-0.005313916466334699
6.13975e-06	-0.005303527252573966
6.14000e-06	-0.005293138038813268
6.14025e-06	-0.00528274882505257
6.14050e-06	-0.005272359611291837
6.14075e-06	-0.0052630860742866594
6.14100e-06	-0.005254560747438629
6.14125e-06	-0.005246035420590571
6.14150e-06	-0.005236997410170173
6.14175e-06	-0.005227615576994356
6.14200e-06	-0.005218233743818505
6.14225e-06	-0.005206985976575289
6.14250e-06	-0.005194486851521804
6.14275e-06	-0.005181987726468277
6.14300e-06	-0.005168052474198742
6.14325e-06	-0.005153154106972618
6.14350e-06	-0.005138255739746443
6.14375e-06	-0.0051202837239396936
6.14400e-06	-0.005100250416566102
6.14425e-06	-0.005080217109192578
6.14450e-06	-0.005060183801819054
6.14475e-06	-0.005040150494445463
6.14500e-06	-0.005016916547569435
6.14525e-06	-0.004991536144766014
6.14550e-06	-0.004966155741962507
6.14575e-06	-0.004940775339159086
6.14600e-06	-0.004915394936355665
6.14625e-06	-0.004887806314910453
6.14650e-06	-0.004858736788168551
