Time(s)	Current(A)
5.30000e-06	0.0007585758887438571
5.30025e-06	0.00076023116560863
5.30050e-06	0.0007618864424733974
5.30075e-06	0.0007629483093457869
5.30100e-06	0.000763656552224107
5.30125e-06	0.0007643647951024247
5.30150e-06	0.0007650730379807425
5.30175e-06	0.0007657812808590626
5.30200e-06	0.0007664895237373804
5.30225e-06	0.0007671977666156981
5.30250e-06	0.0007679060094940182
5.30275e-06	0.000768614252372336
5.30300e-06	0.000769322495250656
5.30325e-06	0.0007700307381289738
5.30350e-06	0.0007707389810072915
5.30375e-06	0.0007711828709161184
5.30400e-06	0.0007698029914831464
5.30425e-06	0.0007684231120501744
5.30450e-06	0.0007670432326171978
5.30475e-06	0.0007656633531842258
5.30500e-06	0.0007642834737512538
5.30525e-06	0.0007629035943182771
5.30550e-06	0.0007615237148853051
5.30575e-06	0.0007601438354523331
5.30600e-06	0.0007587639560193564
5.30625e-06	0.0007573840765863844
5.30650e-06	0.0007560041971534124
5.30675e-06	0.0007546243177204358
5.30700e-06	0.0007532444382874637
5.30725e-06	0.0007512239744201434
5.30750e-06	0.0007488217744359949
5.30775e-06	0.0007464195744518466
5.30800e-06	0.0007440173744676901
5.30825e-06	0.0007416151744835416
5.30850e-06	0.0007392129744993932
5.30875e-06	0.0007368107745152367
5.30900e-06	0.0007344085745310883
5.30925e-06	0.0007320063745469399
5.30950e-06	0.0007296041745627834
5.30975e-06	0.0007272019745786349
5.31000e-06	0.0007247997745944866
5.31025e-06	0.0007223975746103301
5.31050e-06	0.0007200498159060725
5.31075e-06	0.0007180776472220668
5.31100e-06	0.0007161054785380543
5.31125e-06	0.0007141333098540486
5.31150e-06	0.0007121611411700362
5.31175e-06	0.0007099257224206634
5.31200e-06	0.0007058741432581849
5.31225e-06	0.0007018225640956927
5.31250e-06	0.0006977709849332143
5.31275e-06	0.0006937194057707358
5.31300e-06	0.0006892814425603157
5.31325e-06	0.0006821778184275435
5.31350e-06	0.0006750741942947711
5.31375e-06	0.0006676224808287887
5.31400e-06	0.0006577693014174469
5.31425e-06	0.0006479161220061051
5.31450e-06	0.0006376892877530003
5.31475e-06	0.0006248846112848266
5.31500e-06	0.000612079934816653
5.31525e-06	0.0005989858974686864
5.31550e-06	0.00058389556137687
5.31575e-06	0.0005688052252850024
5.31600e-06	0.0005534174666302029
5.31625e-06	0.0005359777917337044
5.31650e-06	0.0005185381168371468
5.31675e-06	0.0005008475956173971
5.31700e-06	0.0004814264873175308
5.31725e-06	0.00046200537901759864
5.31750e-06	0.00044258427071773235
5.31775e-06	0.000423163162417866
5.31800e-06	0.0004036305722397885
5.31825e-06	0.00038332886934179283
5.31850e-06	0.00036302716644379715
5.31875e-06	0.0003427254635457326
5.31900e-06	0.0003224237606477369
5.31925e-06	0.00030224197049788916
5.31950e-06	0.0002828874575828084
5.31975e-06	0.0002635329446677932
5.32000e-06	0.00024434752076855194
5.32025e-06	0.00022632864084085714
5.32050e-06	0.000208509783138112
5.32075e-06	0.00019207087740628144
5.32100e-06	0.0001758231805784928
5.32125e-06	0.00016104292085843364
5.32150e-06	0.00014742380173293703
5.32175e-06	0.0001347574436443282
5.32200e-06	0.00012207501929899472
5.32225e-06	0.00010924381283193327
5.32250e-06	9.612473460890805e-05
5.32275e-06	8.282548098520828e-05
5.32300e-06	6.9530900687544e-05
5.32325e-06	5.629147691410773e-05
5.32350e-06	4.32212349169722e-05
5.32375e-06	3.0188711574721648e-05
5.32400e-06	1.681326767027275e-05
5.32425e-06	2.844705292365588e-06
5.32450e-06	-1.1689158582753923e-05
5.32475e-06	-2.6672006214410132e-05
5.32500e-06	-4.198754362393572e-05
5.32525e-06	-5.751995158855195e-05
5.32550e-06	-7.319488214526728e-05
5.32575e-06	-8.913937200529717e-05
5.32600e-06	-0.00010519442215820552
5.32625e-06	-0.0001220122270207178
5.32650e-06	-0.00013891992735803378
5.32675e-06	-0.00015644781596464667
5.32700e-06	-0.00017397570457125956
5.32725e-06	-0.00019152498807954515
5.32750e-06	-0.0002092218748685988
5.32775e-06	-0.0002269187616576525
5.32800e-06	-0.0002446156484467661
5.32825e-06	-0.0002623125352358198
5.32850e-06	-0.0002799279260712389
5.32875e-06	-0.00029698107687595225
5.32900e-06	-0.00031403422768066564
5.32925e-06	-0.00033108737848543677
5.32950e-06	-0.00034814052929015016
5.32975e-06	-0.000364973091120728
5.33000e-06	-0.0003802838111180915
5.33025e-06	-0.00039559453111540316
5.33050e-06	-0.00041070511344006315
5.33075e-06	-0.0004244349473214804
5.33100e-06	-0.0004379404965536568
5.33125e-06	-0.00044989870751555
5.33150e-06	-0.00046151591259288127
5.33175e-06	-0.0004707805203902581
5.33200e-06	-0.0004795156178210404
5.33225e-06	-0.0004845976268320058
5.33250e-06	-0.0004891257506749683
5.33275e-06	-0.0004898326245091039
5.33300e-06	-0.0004900040761983948
5.33325e-06	-0.0004864816541501315
5.33350e-06	-0.0004824040813085256
5.33375e-06	-0.00047449652691768535
5.33400e-06	-0.0004661227047387371
5.33425e-06	-0.00045422499760527273
5.33450e-06	-0.0004399177278458606
5.33475e-06	-0.000423329421660257
5.33500e-06	-0.00040458863066752
5.33525e-06	-0.00038382365225649674
5.33550e-06	-0.0003611522386679694
5.33575e-06	-0.00033662033863953534
5.33600e-06	-0.00031020470140826975
5.33625e-06	-0.00028195055513910693
5.33650e-06	-0.0002520116198611032
5.33675e-06	-0.00022057388525916922
5.33700e-06	-0.00018782326310362853
5.33725e-06	-0.0001539455774630466
5.33750e-06	-0.00011912000923528379
5.33775e-06	-8.348072664889304e-05
5.33800e-06	-4.711856130547422e-05
5.33825e-06	-1.0167258721036251e-05
5.33850e-06	2.7158601227918213e-05
5.33875e-06	6.456448849733317e-05
5.33900e-06	0.00010197037576674814
5.33925e-06	0.00013925228057497067
5.33950e-06	0.00017567883122547416
5.33975e-06	0.00021189526320322398
5.34000e-06	0.00024666208788651624
5.34025e-06	0.0002811148477397322
5.34050e-06	0.00031340087646668994
5.34075e-06	0.00034537474893413516
5.34100e-06	0.00037494573851311585
5.34125e-06	0.00040238993161919136
5.34150e-06	0.0004270279830191525
5.34175e-06	0.00045134316916390824
5.34200e-06	0.0004734309101086815
5.34225e-06	0.0004953580769139783
5.34250e-06	0.0005161774438235419
5.34275e-06	0.0005366911005040674
5.34300e-06	0.0005550956643929748
5.34325e-06	0.0005735002282818822
5.34350e-06	0.0005915464132604714
5.34375e-06	0.0006071201445736205
5.34400e-06	0.0006226938758867697
5.34425e-06	0.0006379158203490866
5.34450e-06	0.0006507107897196753
5.34475e-06	0.000663505759090264
5.34500e-06	0.0006763007284608959
5.34525e-06	0.0006890956978314846
5.34550e-06	0.0007018906672021166
5.34575e-06	0.0007146856365727053
5.34600e-06	0.000727480605943294
5.34625e-06	0.0007402755753139259
5.34650e-06	0.0007530705446845146
5.34675e-06	0.0007654321226805449
5.34700e-06	0.0007748037365313937
5.34725e-06	0.0007841753503822108
5.34750e-06	0.000793546964233028
5.34775e-06	0.0008029185780838768
5.34800e-06	0.0008122901919346939
5.34825e-06	0.0008216618057855109
5.34850e-06	0.0008310334196363597
5.34875e-06	0.0008404050334871768
5.34900e-06	0.000849776647337994
5.34925e-06	0.0008585520218622554
5.34950e-06	0.0008632139453283961
5.34975e-06	0.0008678758687945526
5.35000e-06	0.0008725377922606934
5.35025e-06	0.0008771997157268341
5.35050e-06	0.0008818616391929907
5.35075e-06	0.0008865235626591314
5.35100e-06	0.0008911854861252722
5.35125e-06	0.0008958474095914287
5.35150e-06	0.0009005093330575693
5.35175e-06	0.0009051712565237101
5.35200e-06	0.0009098331799898666
5.35225e-06	0.0009144951034560074
5.35250e-06	0.0009191570269221481
5.35275e-06	0.0009238189503883046
5.35300e-06	0.0009284808738544454
5.35325e-06	0.0009331427973205862
5.35350e-06	0.0009368154510815356
5.35375e-06	0.0009336631398772056
5.35400e-06	0.0009305108286728649
5.35425e-06	0.0009273585174685349
5.35450e-06	0.0009242062062642049
5.35475e-06	0.0009210538950598642
5.35500e-06	0.0009179015838555342
5.35525e-06	0.0009147492726512042
5.35550e-06	0.0009115969614468635
5.35575e-06	0.0009084446502425334
5.35600e-06	0.0009052923390382035
5.35625e-06	0.0009021400278338628
5.35650e-06	0.0008989877166295328
5.35675e-06	0.0008958354054252027
5.35700e-06	0.000892683094220862
5.35725e-06	0.0008895307830165321
5.35750e-06	0.0008863784718122021
5.35775e-06	0.0008828202489182572
5.35800e-06	0.0008764616440400689
5.35825e-06	0.000870103039161859
5.35850e-06	0.0008637444342836707
5.35875e-06	0.0008573858294054825
5.35900e-06	0.0008510272245272725
5.35925e-06	0.0008446686196490842
5.35950e-06	0.0008383100147708959
5.35975e-06	0.000831951409892686
5.36000e-06	0.0008255928050144978
5.36025e-06	0.0008203196583703183
5.36050e-06	0.0008156933563707565
5.36075e-06	0.0008110670543712103
5.36100e-06	0.0008064407523716642
5.36125e-06	0.0008018144503721023
5.36150e-06	0.0007971881483725562
5.36175e-06	0.0007925618463730101
5.36200e-06	0.0007879355443734483
5.36225e-06	0.000783309242373902
5.36250e-06	0.00077918924525138
5.36275e-06	0.0007785622420292969
5.36300e-06	0.0007779352388072138
5.36325e-06	0.0007773082355851287
5.36350e-06	0.0007766812323630457
5.36375e-06	0.0007760542291409626
5.36400e-06	0.0007754272259188774
5.36425e-06	0.0007748002226967943
5.36450e-06	0.0007741732194747113
5.36475e-06	0.0007735462162526261
5.36500e-06	0.000772919213030543
5.36525e-06	0.00077229220980846
5.36550e-06	0.0007721008021512087
5.36575e-06	0.000774914565330404
5.36600e-06	0.0007777283285095995
5.36625e-06	0.0007805420916888044
5.36650e-06	0.0007833558548679999
5.36675e-06	0.0007861696180472049
5.36700e-06	0.0007889833812264002
5.36725e-06	0.0007917971444055957
5.36750e-06	0.0007946109075848007
5.36775e-06	0.000797424670763996
5.36800e-06	0.0008002384339431915
5.36825e-06	0.0008030521971223965
5.36850e-06	0.0008059758398616283
5.36875e-06	0.0008096575409374461
5.36900e-06	0.0008133392420132764
5.36925e-06	0.0008170209430890942
5.36950e-06	0.0008207026441649121
5.36975e-06	0.0008243843452407425
5.37000e-06	0.0008280660463165603
5.37025e-06	0.0008316800686480382
5.37050e-06	0.0008348271757831383
5.37075e-06	0.0008379742829182276
5.37100e-06	0.0008411213900533276
5.37125e-06	0.0008442684971884171
5.37150e-06	0.0008454074104173417
5.37175e-06	0.0008453496037425366
5.37200e-06	0.0008452917970677316
5.37225e-06	0.0008452339903929266
5.37250e-06	0.0008443863631053377
5.37275e-06	0.000838089768788577
5.37300e-06	0.0008317931744718164
5.37325e-06	0.0008248788223582805
5.37350e-06	0.000813702563411822
5.37375e-06	0.0008025263044653634
5.37400e-06	0.000790704636787218
5.37425e-06	0.0007744302986647608
5.37450e-06	0.000757656010908251
5.37475e-06	0.000737432574031051
5.37500e-06	0.0007167853534778124
5.37525e-06	0.0006932144522291284
5.37550e-06	0.0006692567817787515
5.37575e-06	0.0006426307932394431
5.37600e-06	0.0006155120815961483
5.37625e-06	0.0005849940766149683
5.37650e-06	0.0005544760716337882
5.37675e-06	0.0005235320747334517
5.37700e-06	0.0004896491624850787
5.37725e-06	0.0004557662502367056
5.37750e-06	0.00042163277487952585
5.37775e-06	0.0003857706663422195
5.37800e-06	0.0003499085578049131
5.37825e-06	0.0003139295182610851
5.37850e-06	0.00027714377250068407
5.37875e-06	0.0002403580267402831
5.37900e-06	0.0002039176203037778
5.37925e-06	0.0001676830079599204
5.37950e-06	0.00013158887468366447
5.37975e-06	9.657025491050582e-05
5.38000e-06	6.241009493423542e-05
5.38025e-06	2.92625514931924e-05
5.38050e-06	-2.654960303575423e-06
5.38075e-06	-3.310561387166537e-05
5.38100e-06	-6.185261152637044e-05
5.38125e-06	-8.866033556786091e-05
5.38150e-06	-0.00011334388719191431
5.38175e-06	-0.00013607715424120915
5.38200e-06	-0.0001574566656908997
5.38225e-06	-0.00017790627875457422
5.38250e-06	-0.00019742521059599812
5.38275e-06	-0.00021587415757280958
5.38300e-06	-0.00023311383427925732
5.38325e-06	-0.00024900571744257335
5.38350e-06	-0.0002633802019190908
5.38375e-06	-0.0002761101446013331
5.38400e-06	-0.00028864905155053146
5.38425e-06	-0.0002998700042792947
5.38450e-06	-0.00031090381763250924
5.38475e-06	-0.0003206465577085445
5.38500e-06	-0.00033016278217094124
5.38525e-06	-0.00033811627695818437
5.38550e-06	-0.0003458183292696018
5.38575e-06	-0.0003517856816536823
5.38600e-06	-0.000357753034037783
5.38625e-06	-0.0003635386288707624
5.38650e-06	-0.0003680702795971354
5.38675e-06	-0.00037260193032352375
5.38700e-06	-0.0003769283077996535
5.38725e-06	-0.0003798385065210673
5.38750e-06	-0.00038274870524249095
5.38775e-06	-0.00038545596526874356
5.38800e-06	-0.00038676315261992645
5.38825e-06	-0.0003880703399711138
5.38850e-06	-0.0003893775273222967
5.38875e-06	-0.00039068471467348405
5.38900e-06	-0.00039199190202466694
5.38925e-06	-0.0003932990893758499
5.38950e-06	-0.0003939022473404909
5.38975e-06	-0.0003940858611680863
5.39000e-06	-0.00039426947499568167
5.39025e-06	-0.0003944530888232777
5.39050e-06	-0.0003946367026508731
5.39075e-06	-0.0003948203164784685
5.39100e-06	-0.00039498885914738115
5.39125e-06	-0.0003950534259952494
5.39150e-06	-0.0003949787408976426
5.39175e-06	-0.00039394335757722554
5.39200e-06	-0.0003925681842560189
5.39225e-06	-0.00038858418870444175
5.39250e-06	-0.00038240720753092726
5.39275e-06	-0.00037369539788924565
5.39300e-06	-0.0003646456662875858
5.39325e-06	-0.0003530581598694235
5.39350e-06	-0.00033982331669742995
5.39375e-06	-0.0003247685659983898
5.39400e-06	-0.00030745311841684264
5.39425e-06	-0.0002876201220968336
5.39450e-06	-0.00026535422582054074
5.39475e-06	-0.0002408456198078168
5.39500e-06	-0.00021428464826436306
5.39525e-06	-0.0001858609743403736
5.39550e-06	-0.00015574161124966412
5.39575e-06	-0.0001239357093664044
5.39600e-06	-9.028440802731413e-05
5.39625e-06	-5.474410927755372e-05
5.39650e-06	-1.7485079323054872e-05
5.39675e-06	2.1256230068583428e-05
5.39700e-06	6.124339397689929e-05
5.39725e-06	0.00010224034091472913
5.39750e-06	0.00014406681693226523
5.39775e-06	0.0001867618524499466
5.39800e-06	0.0002296093526573658
5.39825e-06	0.0002735087057187481
5.39850e-06	0.00031740805878013043
5.39875e-06	0.0003613074118416614
5.39900e-06	0.00040457203348876706
5.39925e-06	0.0004474584069426944
5.39950e-06	0.000490344780396767
5.39975e-06	0.0005329019491515109
5.40000e-06	0.000573187936931009
5.40025e-06	0.000613108661927676
5.40050e-06	0.0006505094414748458
5.40075e-06	0.000687403425588802
5.40100e-06	0.0007208010314644222
5.40125e-06	0.0007535740337438644
5.40150e-06	0.0007820379000727814
5.40175e-06	0.0008100308800931204
5.40200e-06	0.0008347752186819096
5.40225e-06	0.0008590800371000969
5.40250e-06	0.0008803526088575326
5.40275e-06	0.0009016251806149684
5.40300e-06	0.0009222372568459278
5.40325e-06	0.0009382925789429213
5.40350e-06	0.0009543479010399148
5.40375e-06	0.0009698544145926663
5.40400e-06	0.0009815747017405758
5.40425e-06	0.0009932949888884852
5.40450e-06	0.0010042296948478936
5.40475e-06	0.0010097446815445466
5.40500e-06	0.0010152596682411997
5.40525e-06	0.0010207746549378714
5.40550e-06	0.0010262896416345245
5.40575e-06	0.0010318046283311964
5.40600e-06	0.0010373196150278495
5.40625e-06	0.0010428346017245026
5.40650e-06	0.001047522370554506
5.40675e-06	0.0010465031689638265
5.40700e-06	0.001045483967373147
5.40725e-06	0.0010444647657824639
5.40750e-06	0.0010434455641917843
5.40775e-06	0.0010424263626011047
5.40800e-06	0.0010414071610104216
5.40825e-06	0.001040387959419742
5.40850e-06	0.0010390388872355812
5.40875e-06	0.0010354140400767801
5.40900e-06	0.0010317891929179912
5.40925e-06	0.0010281643457592026
5.40950e-06	0.0010245394986004013
5.40975e-06	0.0010209146514416126
5.41000e-06	0.0010172898042828116
5.41025e-06	0.0010136649571240227
5.41050e-06	0.0010099566017783654
5.41075e-06	0.0010061984823591347
5.41100e-06	0.0010024403629399167
5.41125e-06	0.0009986822435206987
5.41150e-06	0.000994924124101468
5.41175e-06	0.0009911660046822502
5.41200e-06	0.0009874078852630322
5.41225e-06	0.0009826956358055096
5.41250e-06	0.0009714008497224368
5.41275e-06	0.0009601060636393639
5.41300e-06	0.0009488112775562528
5.41325e-06	0.0009375164914731799
5.41350e-06	0.0009262217053901071
5.41375e-06	0.0009149269193069959
5.41400e-06	0.000903632133223923
5.41425e-06	0.0008923373471408119
5.41450e-06	0.000881042561057739
5.41475e-06	0.0008625316681967753
5.41500e-06	0.0008397205638002459
5.41525e-06	0.0008169094594037939
5.41550e-06	0.0007940983550073417
5.41575e-06	0.0007712872506108123
5.41600e-06	0.0007484761462143603
5.41625e-06	0.0007256650418179082
5.41650e-06	0.0007028539374213787
5.41675e-06	0.0006800428330249267
5.41700e-06	0.0006564947454501393
5.41725e-06	0.0006278622159561964
5.41750e-06	0.0005992296864623502
5.41775e-06	0.0005705971569685043
5.41800e-06	0.0005419646274745613
5.41825e-06	0.0005127576468879898
5.41850e-06	0.00048320834026716053
5.41875e-06	0.0004536590336464314
5.41900e-06	0.0004241097270257023
5.41925e-06	0.00039473950956033145
5.41950e-06	0.0003666048269565302
5.41975e-06	0.0003384701443527289
5.42000e-06	0.00031058173671546867
5.42025e-06	0.0002843923783925875
5.42050e-06	0.00025840915119433263
5.42075e-06	0.0002340173865720736
5.42100e-06	0.00021098739433535332
5.42125e-06	0.00018950735566532605
5.42150e-06	0.00016971902277553851
5.42175e-06	0.00015143621774227448
5.42200e-06	0.00013409123689665255
5.42225e-06	0.00011728435869950011
5.42250e-06	0.00010101087060225359
5.42275e-06	8.539402640566473e-05
5.42300e-06	7.055706895024105e-05
5.42325e-06	5.662254563183111e-05
5.42350e-06	4.368389379651407e-05
5.42375e-06	3.162917338879099e-05
5.42400e-06	2.0107447474214863e-05
5.42425e-06	8.873035336175881e-06
5.42450e-06	-2.0722814670409297e-06
5.42475e-06	-1.2646573249175983e-05
5.42500e-06	-2.2767936130876417e-05
5.42525e-06	-3.235490401988617e-05
5.42550e-06	-4.1344246301616786e-05
5.42575e-06	-4.980138312065057e-05
5.42600e-06	-5.794143079493469e-05
5.42625e-06	-6.591355754123111e-05
5.42650e-06	-7.369425842604333e-05
5.42675e-06	-8.115868880828576e-05
5.42700e-06	-8.853848349094803e-05
5.42725e-06	-9.533437705972644e-05
5.42750e-06	-0.00010203411150554565
5.42775e-06	-0.00010807044481846746
5.42800e-06	-0.00011410677813136881
5.42825e-06	-0.00012008155022511122
5.42850e-06	-0.00012563161188812187
5.42875e-06	-0.00013118167355111372
5.42900e-06	-0.00013663756495286108
5.42925e-06	-0.00014144377636514076
5.42950e-06	-0.00014624998777740418
5.42975e-06	-0.00015097550375442462
5.43000e-06	-0.00015514430247459243
5.43025e-06	-0.0001593131011947461
5.43050e-06	-0.00016341197365541177
5.43075e-06	-0.00016702842532925456
5.43100e-06	-0.00017064487700308513
5.43125e-06	-0.00017419758893646759
5.43150e-06	-0.00017731056083556722
5.43175e-06	-0.00018042353273466688
5.43200e-06	-0.00018353650463377708
5.43225e-06	-0.0001866494765328767
5.43250e-06	-0.00018983594312850765
5.43275e-06	-0.00019352944913374027
5.43300e-06	-0.0001972229551389604
5.43325e-06	-0.0002009164611441805
5.43350e-06	-0.00020460996714941315
5.43375e-06	-0.0002083927182236017
5.43400e-06	-0.00021279117041925105
5.43425e-06	-0.00021718962261491528
5.43450e-06	-0.00022173299155027617
5.43475e-06	-0.0002272761400834056
5.43500e-06	-0.00023281928861655383
5.43525e-06	-0.00023836243714968325
5.43550e-06	-0.00024390558568283146
5.43575e-06	-0.0002494487342159609
5.43600e-06	-0.00025499188274909034
5.43625e-06	-0.0002605350312822385
5.43650e-06	-0.0002667486731850241
5.43675e-06	-0.0002733618744915375
5.43700e-06	-0.0002799750757980734
5.43725e-06	-0.00028658827710458684
5.43750e-06	-0.0002932014784111003
5.43775e-06	-0.00029981467971763615
5.43800e-06	-0.0003064278810241496
5.43825e-06	-0.000313053680458107
5.43850e-06	-0.00031976639428728883
5.43875e-06	-0.00032647910811644794
5.43900e-06	-0.00033319182194560705
5.43925e-06	-0.0003399045357747889
5.43950e-06	-0.000346617249603948
5.43975e-06	-0.0003527679337328914
5.44000e-06	-0.0003585836939653978
5.44025e-06	-0.0003643994541979042
5.44050e-06	-0.00037021521443043025
5.44075e-06	-0.00037603097466293664
5.44100e-06	-0.0003816694294466232
5.44125e-06	-0.0003860846551499074
5.44150e-06	-0.00039049988085317663
5.44175e-06	-0.0003946279717266457
5.44200e-06	-0.0003967751213705137
5.44225e-06	-0.000398572976848411
5.44250e-06	-0.00039796105426114295
5.44275e-06	-0.0003970166259264532
5.44300e-06	-0.0003937782427115324
5.44325e-06	-0.00039022222070164714
5.44350e-06	-0.00038447481081494713
5.44375e-06	-0.0003783541501514131
5.44400e-06	-0.0003696584349279446
5.44425e-06	-0.0003605678943452119
5.44450e-06	-0.00034875345630577494
