Time(s)	Current(A)
1.45000e-05	0.0054287256775925755
1.45003e-05	0.005451932023439558
1.45005e-05	0.005479311826799067
1.45008e-05	0.005506691630158576
1.45010e-05	0.0055340714335178984
1.45013e-05	0.005561451236877407
1.45015e-05	0.005588831040236915
1.45018e-05	0.005616210843596239
1.45020e-05	0.005643590646955747
1.45023e-05	0.005670970450315256
1.45025e-05	0.005698350253674578
1.45028e-05	0.005725730057034087
1.45030e-05	0.005753109860393595
1.45033e-05	0.005780489663752919
1.45035e-05	0.0058012693862458855
1.45038e-05	0.005821674254073777
1.45040e-05	0.005842079121901531
1.45043e-05	0.005862483989729423
1.45045e-05	0.005882888857557316
1.45048e-05	0.00590329372538507
1.45050e-05	0.005923698593212962
1.45053e-05	0.005944103461040855
1.45055e-05	0.005964508328868609
1.45058e-05	0.005984913196696501
1.45060e-05	0.006005318064524394
1.45063e-05	0.006025722932352148
1.45065e-05	0.00603912753223079
1.45068e-05	0.006043845767614223
1.45070e-05	0.006048564002997624
1.45073e-05	0.006053282238381057
1.45075e-05	0.0060580004737644895
1.45078e-05	0.0060627187091478905
1.45080e-05	0.006067436944531324
1.45083e-05	0.006072155179914757
1.45085e-05	0.006076873415298158
1.45088e-05	0.00608159165068159
1.45090e-05	0.006086309886065023
1.45093e-05	0.006091028121448456
1.45095e-05	0.0060957463568318574
1.45098e-05	0.00610046459221529
1.45100e-05	0.006105182827598723
1.45103e-05	0.006109901062982124
1.45105e-05	0.006114619298365557
1.45108e-05	0.006119337533748989
1.45110e-05	0.006120419627995771
1.45113e-05	0.006116989773914032
1.45115e-05	0.006113559919832292
1.45118e-05	0.006110130065750576
1.45120e-05	0.0061067002116688375
1.45123e-05	0.006103270357587098
1.45125e-05	0.006099840503505382
1.45128e-05	0.0060964106494236425
1.45130e-05	0.006092980795341903
1.45133e-05	0.006089550941260187
1.45135e-05	0.006086121087178448
1.45138e-05	0.006082691233096709
1.45140e-05	0.006079261379014993
1.45143e-05	0.006075831524933253
1.45145e-05	0.006072401670851514
1.45148e-05	0.006068971816769798
1.45150e-05	0.006065541962688059
1.45153e-05	0.00606211210860632
1.45155e-05	0.006055681171826131
1.45158e-05	0.0060455263064199535
1.45160e-05	0.006035371441013775
1.45163e-05	0.0060252165756076665
1.45165e-05	0.006015061710201489
1.45168e-05	0.006004906844795311
1.45170e-05	0.005994751979389202
1.45173e-05	0.005984597113983025
1.45175e-05	0.005974442248576847
1.45178e-05	0.005964287383170669
1.45180e-05	0.00595413251776456
1.45183e-05	0.005943977652358383
1.45185e-05	0.005933822786952205
1.45188e-05	0.005923667921546096
1.45190e-05	0.005900555508805459
1.45193e-05	0.005876707166130708
1.45195e-05	0.00585285882345612
1.45198e-05	0.00582901048078137
1.45200e-05	0.005805162138106621
1.45203e-05	0.0057813137954320325
1.45205e-05	0.005757465452757282
1.45208e-05	0.005733617110082532
1.45210e-05	0.005709768767407944
1.45213e-05	0.0056859204247331945
1.45215e-05	0.005662072082058445
1.45218e-05	0.005638223739383857
1.45220e-05	0.005614375396709106
1.45223e-05	0.0055901431117206975
1.45225e-05	0.005565434407414323
1.45228e-05	0.005540725703107781
1.45230e-05	0.005516016998801239
1.45233e-05	0.0054913082944948646
1.45235e-05	0.005466599590188323
1.45238e-05	0.005441890885881781
1.45240e-05	0.005417182181575406
1.45243e-05	0.005392473477268863
1.45245e-05	0.0053677647729623214
1.45248e-05	0.005343056068655947
1.45250e-05	0.005318347364349405
1.45253e-05	0.005293638660042863
1.45255e-05	0.005275751843821261
1.45258e-05	0.00526633004735496
1.45260e-05	0.005256908250888659
1.45263e-05	0.005247486454422359
1.45265e-05	0.0052380646579561225
1.45268e-05	0.005228642861489822
1.45270e-05	0.005219221065023522
1.45273e-05	0.005209799268557285
1.45275e-05	0.005200377472090984
1.45278e-05	0.0051909556756246835
1.45280e-05	0.005181533879158448
1.45283e-05	0.005172112082692147
1.45285e-05	0.005162690286225846
1.45288e-05	0.0051600539025191084
1.45290e-05	0.005165837277733759
1.45293e-05	0.005171620652948409
1.45295e-05	0.0051774040281630206
1.45298e-05	0.00518318740337767
1.45300e-05	0.005188970778592321
1.45303e-05	0.005194754153806932
1.45305e-05	0.0052005375290215825
1.45308e-05	0.005206320904236232
1.45310e-05	0.005212104279450844
1.45313e-05	0.005217887654665494
1.45315e-05	0.005223671029880144
1.45318e-05	0.005229454405094755
1.45320e-05	0.005235237780309406
1.45323e-05	0.005244869565490766
1.45325e-05	0.005254719922908412
1.45328e-05	0.005264570280326124
1.45330e-05	0.005274420637743835
1.45333e-05	0.005284270995161481
1.45335e-05	0.005294121352579193
1.45338e-05	0.005303971709996905
1.45340e-05	0.005313822067414551
1.45343e-05	0.005323672424832262
1.45345e-05	0.005333522782249974
1.45348e-05	0.0053433731396676865
1.45350e-05	0.005353223497085332
1.45353e-05	0.005363073854503043
1.45355e-05	0.005368395524838969
1.45358e-05	0.005368097720749817
1.45360e-05	0.0053677999166606635
1.45363e-05	0.00536750211257151
1.45365e-05	0.005367204308482358
1.45368e-05	0.005366906504393205
1.45370e-05	0.005366608700304051
1.45373e-05	0.005366310896214899
1.45375e-05	0.005366013092125745
1.45378e-05	0.005365715288036591
1.45380e-05	0.005365417483947439
1.45383e-05	0.005365119679858286
1.45385e-05	0.005364821875769132
1.45388e-05	0.00536452407167998
1.45390e-05	0.005364226267590827
1.45393e-05	0.005363928463501673
1.45395e-05	0.005363630659412521
1.45398e-05	0.005358891497316717
1.45400e-05	0.005348641224101288
1.45403e-05	0.00533839095088593
1.45405e-05	0.005328140677670502
1.45408e-05	0.005317890404455073
1.45410e-05	0.005307640131239714
1.45413e-05	0.005297389858024286
1.45415e-05	0.005287139584808858
1.45418e-05	0.005276889311593499
1.45420e-05	0.005266639038378071
1.45423e-05	0.005256388765162642
1.45425e-05	0.005246138491947283
1.45428e-05	0.005235888218731856
1.45430e-05	0.005225637945516427
1.45433e-05	0.005215387672300999
1.45435e-05	0.00520513739908564
1.45438e-05	0.005194887125870211
1.45440e-05	0.0051866630662443375
1.45443e-05	0.005180953257491392
1.45445e-05	0.005175243448738408
1.45448e-05	0.005169533639985424
1.45450e-05	0.005163823831232478
1.45453e-05	0.005158114022479495
1.45455e-05	0.005152404213726511
1.45458e-05	0.005146694404973565
1.45460e-05	0.005140984596220582
1.45463e-05	0.005135274787467598
1.45465e-05	0.005129564978714652
1.45468e-05	0.005123855169961668
1.45470e-05	0.005118145361208685
1.45473e-05	0.005112435552455739
1.45475e-05	0.005106725743702755
1.45478e-05	0.005101015934949772
1.45480e-05	0.005095306126196826
1.45483e-05	0.005089596317443842
1.45485e-05	0.005083886508690859
1.45488e-05	0.005078176699937913
1.45490e-05	0.005072466891184929
1.45493e-05	0.005066757082431945
1.45495e-05	0.005067667684426975
1.45498e-05	0.005068954295734475
1.45500e-05	0.005070240907041975
1.45503e-05	0.005071527518349466
1.45505e-05	0.005072814129656966
1.45508e-05	0.005074100740964466
1.45510e-05	0.005075387352271957
1.45513e-05	0.005076673963579457
1.45515e-05	0.005077960574886956
1.45518e-05	0.005079247186194456
1.45520e-05	0.005080533797501947
1.45523e-05	0.005081820408809447
1.45525e-05	0.005083107020116947
1.45528e-05	0.005084393631424438
1.45530e-05	0.005085680242731938
1.45533e-05	0.005086966854039438
1.45535e-05	0.005088253465346929
1.45538e-05	0.0050895400766544285
1.45540e-05	0.005090826687961928
1.45543e-05	0.00509211329926942
1.45545e-05	0.00509339991057692
1.45548e-05	0.005092591970081321
1.45550e-05	0.005089184980439175
1.45553e-05	0.005085777990797006
1.45555e-05	0.005082371001154836
1.45558e-05	0.00507896401151269
1.45560e-05	0.0050755570218705215
1.45563e-05	0.005072150032228352
1.45565e-05	0.005068743042586206
1.45568e-05	0.005065336052944037
1.45570e-05	0.005061929063301868
1.45573e-05	0.005058522073659722
1.45575e-05	0.0050469554489825175
1.45578e-05	0.0050252638455657445
1.45580e-05	0.005003572242149119
1.45583e-05	0.004981880638732346
1.45585e-05	0.004960189035315573
1.45588e-05	0.004938497431898946
1.45590e-05	0.004916805828482173
1.45593e-05	0.0048951142250654
1.45595e-05	0.004873422621648775
1.45598e-05	0.004851731018232002
1.45600e-05	0.0048300394148152286
1.45603e-05	0.004802224389631357
1.45605e-05	0.0047668110447997535
1.45608e-05	0.004731397699967911
1.45610e-05	0.0046959843551360675
1.45613e-05	0.004660571010304464
1.45615e-05	0.004625157665472621
1.45618e-05	0.0045897443206407785
1.45620e-05	0.004554330975809175
1.45623e-05	0.004518917630977332
1.45625e-05	0.0044835042861454885
1.45628e-05	0.004448864372056184
1.45630e-05	0.00441426838532601
1.45633e-05	0.004379672398595835
1.45635e-05	0.004345076411865896
1.45638e-05	0.004310480425135722
1.45640e-05	0.004275884438405548
1.45643e-05	0.0042412884516756085
1.45645e-05	0.004206692464945434
1.45648e-05	0.00417209647821526
1.45650e-05	0.004144229832861269
1.45653e-05	0.004124713369602832
1.45655e-05	0.0041051969063443956
1.45658e-05	0.004085680443086091
1.45660e-05	0.004066163979827654
1.45663e-05	0.0040466475165692175
1.45665e-05	0.004027131053310913
1.45668e-05	0.004007614590052476
1.45670e-05	0.0039880981267940395
1.45673e-05	0.003968581663535735
1.45675e-05	0.003949065200277298
1.45678e-05	0.0039295487370188615
1.45680e-05	0.003910032273760557
1.45683e-05	0.00389051581050212
1.45685e-05	0.0038755597890496726
1.45688e-05	0.003866262645248753
1.45690e-05	0.0038569655014477704
1.45693e-05	0.0038476683576467883
1.45695e-05	0.003838371213845806
1.45698e-05	0.0038290740700448866
1.45700e-05	0.003819776926243904
1.45703e-05	0.0038104797824429215
1.45705e-05	0.0038011826386420023
1.45708e-05	0.0037918854948410198
1.45710e-05	0.0037825883510400372
1.45713e-05	0.003773291207239118
1.45715e-05	0.0037639940634381355
1.45718e-05	0.003754696919637153
1.45720e-05	0.003747291237158719
1.45723e-05	0.0037422325966255518
1.45725e-05	0.0037371739560923844
1.45728e-05	0.0037321153155592513
1.45730e-05	0.003727056675026084
1.45733e-05	0.0037219980344929166
1.45735e-05	0.0037169393939597835
1.45738e-05	0.003711880753426616
1.45740e-05	0.0037068221128934487
1.45743e-05	0.0037017634723603156
1.45745e-05	0.0036967048318271483
1.45748e-05	0.003691646191293981
1.45750e-05	0.0036887839639956296
1.45753e-05	0.003686046483010548
1.45755e-05	0.0036833090020254662
1.45758e-05	0.003680571521040403
1.45760e-05	0.003677834040055321
1.45763e-05	0.0036750965590702394
1.45765e-05	0.0036723590780851764
1.45768e-05	0.0036696215971000947
1.45770e-05	0.003666884116115013
1.45773e-05	0.00366414663512995
1.45775e-05	0.003661409154144868
1.45778e-05	0.003659173769638493
1.45780e-05	0.0036580198481481435
1.45783e-05	0.0036574347757847305
1.45785e-05	0.0036568497034213136
1.45788e-05	0.0036562646310578967
1.45790e-05	0.0036556795586944837
1.45793e-05	0.003655094486331067
1.45795e-05	0.00365450941396765
1.45798e-05	0.003653924341604237
1.45800e-05	0.0036533392692408204
1.45803e-05	0.0036527541968774035
1.45805e-05	0.0036521691245139905
1.45808e-05	0.0036515840521505736
1.45810e-05	0.0036509989797871567
1.45813e-05	0.0036504139074237437
1.45815e-05	0.003649828835060327
1.45818e-05	0.00364960618077948
1.45820e-05	0.0036498332372231703
1.45823e-05	0.0036500602936668618
1.45825e-05	0.0036502873501105533
1.45828e-05	0.003650514406554243
1.45830e-05	0.0036507414629979346
1.45833e-05	0.0036509685194416265
1.45835e-05	0.0036511955758853163
1.45838e-05	0.003651422632329008
1.45840e-05	0.0036516496887726993
1.45843e-05	0.0036518767452163895
1.45845e-05	0.003652103801660081
1.45848e-05	0.0036523308581037726
1.45850e-05	0.003652557914547463
1.45853e-05	0.0036527849709911543
1.45855e-05	0.003657601848351741
1.45858e-05	0.0036681140587803917
1.45860e-05	0.0036786262692091137
1.45863e-05	0.0036891384796378353
1.45865e-05	0.0036996506900665574
1.45868e-05	0.003710162900495208
1.45870e-05	0.00372067511092393
1.45873e-05	0.0037311873213526515
1.45875e-05	0.0037416995317813024
1.45878e-05	0.003752211742210024
1.45880e-05	0.00377330124639383
1.45883e-05	0.0038075157094785805
1.45885e-05	0.003841730172563563
1.45888e-05	0.0038759446356485456
1.45890e-05	0.003910159098733297
1.45893e-05	0.003944373561818279
1.45895e-05	0.003978588024903262
1.45898e-05	0.004012802487988012
1.45900e-05	0.004047016951072994
1.45903e-05	0.004081231414157977
1.45905e-05	0.004122459024502519
1.45908e-05	0.004172388980805442
1.45910e-05	0.004222318937108366
1.45913e-05	0.0042722488934109504
1.45915e-05	0.004322178849713874
1.45918e-05	0.004372108806016797
1.45920e-05	0.004422038762319383
1.45923e-05	0.0044719687186223055
1.45925e-05	0.0045218986749252284
1.45928e-05	0.004570589979745691
1.45930e-05	0.004619210934778151
1.45933e-05	0.004667831889810612
1.45935e-05	0.004716452844842744
1.45938e-05	0.004765073799875204
1.45940e-05	0.004813694754907665
1.45943e-05	0.004862315709939796
1.45945e-05	0.004910936664972257
1.45948e-05	0.0049523153397824935
1.45950e-05	0.004984707346311908
1.45953e-05	0.005017099352841102
1.45955e-05	0.0050494913593705166
1.45958e-05	0.005081883365899931
1.45960e-05	0.0051142753724291255
1.45963e-05	0.00514666737895854
1.45965e-05	0.005179059385487954
1.45968e-05	0.0052114513920171485
1.45970e-05	0.005243843398546562
1.45973e-05	0.005276235405075976
1.45975e-05	0.005308627411605171
1.45978e-05	0.005337685533854497
1.45980e-05	0.005366554306591855
1.45983e-05	0.005395423079329017
1.45985e-05	0.005424291852066375
1.45988e-05	0.005453160624803733
1.45990e-05	0.005482029397540895
1.45993e-05	0.0055108981702782535
1.45995e-05	0.005539766943015612
1.45998e-05	0.005568635715752774
1.46000e-05	0.005597504488490132
1.46003e-05	0.005626373261227489
1.46005e-05	0.005655105719156978
1.46008e-05	0.005683669029260148
1.46010e-05	0.005712232339363317
1.46013e-05	0.005740795649466294
1.46015e-05	0.005769358959569463
1.46018e-05	0.005797922269672634
1.46020e-05	0.00582648557977561
1.46023e-05	0.005855048889878779
1.46025e-05	0.005883612199981949
1.46028e-05	0.005912175510084925
1.46030e-05	0.0059407388201880955
1.46033e-05	0.005969302130291265
1.46035e-05	0.005997865440394435
1.46038e-05	0.006026428750497411
1.46040e-05	0.0060549920606005805
1.46043e-05	0.006071523598506495
1.46045e-05	0.006087371786300333
1.46048e-05	0.006103219974094278
1.46050e-05	0.006119068161888223
1.46053e-05	0.006134916349682062
1.46055e-05	0.006150764537476008
1.46058e-05	0.006166612725269953
1.46060e-05	0.006182460913063791
1.46063e-05	0.006198309100857736
1.46065e-05	0.006214157288651682
1.46068e-05	0.00623000547644552
1.46070e-05	0.0062458536642394655
1.46073e-05	0.0062617018520334106
1.46075e-05	0.006277550039827249
1.46078e-05	0.00628694965600541
1.46080e-05	0.006288347486524221
1.46083e-05	0.006289745317043022
1.46085e-05	0.006291143147561833
1.46088e-05	0.006292540978080644
1.46090e-05	0.006293938808599446
1.46093e-05	0.006295336639118257
1.46095e-05	0.006296734469637068
1.46098e-05	0.0062981323001558695
1.46100e-05	0.00629953013067468
1.46103e-05	0.006300927961193491
1.46105e-05	0.006302325791712292
1.46108e-05	0.006303723622231103
1.46110e-05	0.006305121452749914
1.46113e-05	0.006306519283268716
1.46115e-05	0.006307917113787527
1.46118e-05	0.006309314944306338
1.46120e-05	0.006305878819686384
1.46123e-05	0.006302168148330176
1.46125e-05	0.0062984574769739425
1.46128e-05	0.006294746805617709
1.46130e-05	0.006291036134261501
1.46133e-05	0.006287325462905268
1.46135e-05	0.006283614791549035
1.46138e-05	0.006279904120192827
1.46140e-05	0.006276193448836594
1.46143e-05	0.006272482777480361
1.46145e-05	0.006268772106124153
1.46148e-05	0.00626506143476792
1.46150e-05	0.006261350763411687
1.46153e-05	0.006257640092055479
1.46155e-05	0.0062539294206992455
1.46158e-05	0.006250218749343012
1.46160e-05	0.006252416949621538
1.46163e-05	0.00626194724251444
1.46165e-05	0.006271477535407343
1.46168e-05	0.006281007828300181
1.46170e-05	0.006290538121193083
1.46173e-05	0.006300068414085985
1.46175e-05	0.006309598706978823
1.46178e-05	0.006319128999871726
1.46180e-05	0.006328659292764628
1.46183e-05	0.006338189585657465
1.46185e-05	0.006347719878550368
1.46188e-05	0.00635725017144327
1.46190e-05	0.0063667804643361085
1.46193e-05	0.00637631075722901
1.46195e-05	0.006402279419731269
1.46198e-05	0.006429181707101729
1.46200e-05	0.006456083994472371
1.46203e-05	0.006482986281843013
1.46205e-05	0.0065098885692136555
1.46208e-05	0.006536790856584116
1.46210e-05	0.006563693143954758
1.46213e-05	0.0065905954313254
1.46215e-05	0.00661749771869586
1.46218e-05	0.006644400006066502
1.46220e-05	0.006671302293437145
1.46223e-05	0.006698204580807604
1.46225e-05	0.006725106868178247
1.46228e-05	0.00675133020355498
1.46230e-05	0.0067767110533930785
1.46233e-05	0.006802091903231349
1.46235e-05	0.00682747275306962
1.46238e-05	0.0068528536029077184
1.46240e-05	0.006878234452745989
1.46243e-05	0.00690361530258426
1.46245e-05	0.006928996152422358
1.46248e-05	0.006954377002260629
1.46250e-05	0.0069797578520989
1.46253e-05	0.007005138701936998
1.46255e-05	0.0070305195517752685
1.46258e-05	0.007055900401613539
1.46260e-05	0.007063279329269451
1.46263e-05	0.007069635829358622
1.46265e-05	0.007075992329447794
1.46268e-05	0.007082348829536923
1.46270e-05	0.007088705329626095
1.46273e-05	0.007095061829715268
1.46275e-05	0.007101418329804396
1.46278e-05	0.007107774829893568
1.46280e-05	0.00711413132998274
1.46283e-05	0.007120487830071869
1.46285e-05	0.007126844330161041
1.46288e-05	0.007133200830250213
1.46290e-05	0.007131658519832574
1.46293e-05	0.007120314877827746
1.46295e-05	0.0071089712358228425
1.46298e-05	0.007097627593817938
1.46300e-05	0.0070862839518131115
1.46303e-05	0.007074940309808207
1.46305e-05	0.007063596667803303
1.46308e-05	0.007052253025798476
1.46310e-05	0.007040909383793571
1.46313e-05	0.007029565741788668
1.46315e-05	0.00701822209978384
1.46318e-05	0.007006878457778936
1.46320e-05	0.006995534815774032
1.46323e-05	0.006984191173769205
1.46325e-05	0.006971405397792984
1.46328e-05	0.006956830132977211
1.46330e-05	0.006942254868161537
1.46333e-05	0.006927679603345763
1.46335e-05	0.00691310433852999
1.46338e-05	0.0068985290737143155
1.46340e-05	0.006883953808898542
1.46343e-05	0.006869378544082769
1.46345e-05	0.006854803279267094
1.46348e-05	0.006840228014451321
1.46350e-05	0.006825652749635548
1.46353e-05	0.006811077484819873
1.46355e-05	0.0067965022200041
1.46358e-05	0.006781926955188327
1.46360e-05	0.006767001481617841
1.46363e-05	0.006751641447409481
1.46365e-05	0.006736281413201121
1.46368e-05	0.006720921378992865
1.46370e-05	0.006705561344784505
1.46373e-05	0.006690201310576145
1.46375e-05	0.006674841276367785
1.46378e-05	0.0066594812421595295
1.46380e-05	0.0066441212079511695
1.46383e-05	0.0066287611737428104
1.46385e-05	0.006613401139534554
1.46388e-05	0.006598041105326195
1.46390e-05	0.006582681071117835
1.46393e-05	0.006567321036909579
1.46395e-05	0.006542700676378203
1.46398e-05	-0.0076211686423150096
1.46400e-05	-0.037904134493204004
1.46403e-05	-0.016401954724367417
1.46405e-05	-0.0010896557539269384
1.46408e-05	0.01672052533985352
1.46410e-05	0.027638565866428003
1.46413e-05	0.02373973877573041
1.46415e-05	0.012591025177943988
1.46418e-05	-0.002015914033702124
1.46420e-05	-0.01144161661700051
1.46423e-05	-0.0071315316360651675
1.46425e-05	0.002886457933102408
1.46428e-05	0.013705989876001669
1.46430e-05	0.02036662133606502
1.46433e-05	0.017819457461346343
1.46435e-05	0.01076813703832941
1.46438e-05	0.0015700625986357925
1.46440e-05	-0.0043718245281023985
1.46443e-05	-0.0017037616699740713
1.46445e-05	0.0045429811772693535
1.46448e-05	0.011293893075757263
1.46450e-05	0.015441391749343805
1.46453e-05	0.01382303091525795
1.46455e-05	0.00938547344467152
1.46458e-05	0.0036055517288512843
1.46460e-05	-0.00013241052205993284
1.46463e-05	0.0015247630797149262
1.46465e-05	0.005425054305077318
1.46468e-05	0.009642388574044664
1.46470e-05	0.012230155497765047
1.46473e-05	0.011207559095183853
1.46475e-05	0.008420548284575538
1.46478e-05	0.00479424680879434
1.46480e-05	0.00244848863836804
1.46483e-05	0.0034834063956498146
1.46485e-05	0.005924281700941204
1.46488e-05	0.008564471931078007
1.46490e-05	0.010184582119923733
1.46493e-05	0.009543916257719703
1.46495e-05	0.007798850596947172
1.46498e-05	0.0055288788757128495
1.46500e-05	0.004061773795868598
1.46503e-05	0.0047128459627726275
1.46505e-05	0.006244922152369965
