Time(s)	Current(A)
1.17500e-05	-0.002726411833601049
1.17503e-05	-0.00277363139131558
1.17505e-05	-0.002824555644033922
1.17508e-05	-0.002875479896752609
1.17510e-05	-0.0029266511832599447
1.17513e-05	-0.0029788151815455205
1.17515e-05	-0.00303097917983145
1.17518e-05	-0.003082854219413189
1.17520e-05	-0.0031335680708398836
1.17523e-05	-0.0031842819222669223
1.17525e-05	-0.0032342609200838313
1.17528e-05	-0.0032812868893355033
1.17530e-05	-0.0033283128585874936
1.17533e-05	-0.003374103318672043
1.17535e-05	-0.003414928852662825
1.17538e-05	-0.003455754386653884
1.17540e-05	-0.0034949630354752254
1.17543e-05	-0.0035276741887040816
1.17545e-05	-0.003560385341933159
1.17548e-05	-0.0035920766882162076
1.17550e-05	-0.003619669913456728
1.17553e-05	-0.0036472631386974355
1.17555e-05	-0.003674856363938143
1.17558e-05	-0.0036984787573417334
1.17560e-05	-0.003720393376229805
1.17563e-05	-0.0037423079951178764
1.17565e-05	-0.0037627640612833153
1.17568e-05	-0.0037773588949603287
1.17570e-05	-0.0037919537286373426
1.17572e-05	-0.0038065485623142575
1.17575e-05	-0.003821143395991271
1.17578e-05	-0.003835738229668285
1.17580e-05	-0.0038503330633452
1.17583e-05	-0.0038649278970222132
1.17585e-05	-0.003879522730699227
1.17588e-05	-0.003892703282791678
1.17590e-05	-0.0039002005071274966
1.17593e-05	-0.0039076977314633655
1.17595e-05	-0.003915194955799235
1.17598e-05	-0.003922692180135053
1.17600e-05	-0.003930189404470923
1.17603e-05	-0.0039376866288067915
1.17605e-05	-0.00394518385314261
1.17608e-05	-0.003952681077478479
1.17610e-05	-0.003959529249686
1.17613e-05	-0.0039637691888391655
1.17615e-05	-0.0039680091279923595
1.17618e-05	-0.0039722490671455545
1.17620e-05	-0.00397648900629872
1.17623e-05	-0.003980417046349596
1.17625e-05	-0.003983091711651634
1.17628e-05	-0.003985766376953654
1.17630e-05	-0.0039884410422556926
1.17633e-05	-0.00399111570755773
1.17635e-05	-0.003993691942869949
1.17638e-05	-0.003995834034682413
1.17640e-05	-0.003997774802746307
1.17643e-05	-0.0039992702580496755
1.17645e-05	-0.0039989410436059745
1.17648e-05	-0.003994281855119553
1.17650e-05	-0.0039835892274567115
1.17653e-05	-0.003966683128204775
1.17655e-05	-0.0039438966924800175
1.17657e-05	-0.003915068139836711
1.17660e-05	-0.0038800253817369763
1.17663e-05	-0.0038434362344945358
1.17665e-05	-0.0037993228944318788
1.17668e-05	-0.0037477157219677018
1.17670e-05	-0.0036871487881420897
1.17673e-05	-0.003624494067753961
1.17675e-05	-0.003552205368176182
1.17678e-05	-0.0034737836386386487
1.17680e-05	-0.0033897836724690136
1.17683e-05	-0.003300674875271951
1.17685e-05	-0.003206481770916728
1.17688e-05	-0.0031067862169776965
1.17690e-05	-0.0030014853089724678
1.17693e-05	-0.0028910744185022554
1.17695e-05	-0.0027762495236153873
1.17698e-05	-0.002657706042191538
1.17700e-05	-0.002536139302757542
1.17703e-05	-0.0024121908010692967
1.17705e-05	-0.0022862233355008736
1.17708e-05	-0.0021583226246279473
1.17710e-05	-0.0020287714733534285
1.17713e-05	-0.0018982277690994223
1.17715e-05	-0.0017674745208890042
1.17718e-05	-0.0016372951574447274
1.17720e-05	-0.001508472387519107
1.17723e-05	-0.001381755158178264
1.17725e-05	-0.0012577178755820131
1.17728e-05	-0.0011367614796570801
1.17730e-05	-0.0010194102460760676
1.17733e-05	-0.0009064233517710307
1.17735e-05	-0.0007986382999515686
1.17738e-05	-0.0006968927806913146
1.17740e-05	-0.0006020222090299834
1.17742e-05	-0.0005147144021321256
1.17745e-05	-0.00043485734595074643
1.17748e-05	-0.000361399517458491
1.17750e-05	-0.00029353985039277535
1.17753e-05	-0.00023132599963065483
1.17755e-05	-0.0001751177991868053
1.17758e-05	-0.0001252749783123894
1.17760e-05	-8.215593271998098e-05
1.17763e-05	-4.6026439516888904e-05
1.17765e-05	-1.6651377545451168e-05
1.17768e-05	6.792922933380526e-06
1.17770e-05	2.497314462563378e-05
1.17773e-05	3.8024331607647124e-05
1.17775e-05	4.5885958808242104e-05
1.17778e-05	4.84975884184831e-05
1.17780e-05	4.579963545887857e-05
1.17783e-05	3.779054139317043e-05
1.17785e-05	2.4782496871985648e-05
1.17788e-05	7.456327635549008e-06
1.17790e-05	-1.3605531607911343e-05
1.17793e-05	-3.8153692669067054e-05
1.17795e-05	-6.606128016767784e-05
1.17798e-05	-9.720136959726958e-05
1.17800e-05	-0.00013144651274828644
1.17803e-05	-0.00016863289948910028
1.17805e-05	-0.0002084002194146256
1.17808e-05	-0.0002501572904927148
1.17810e-05	-0.0002934686502530796
1.17813e-05	-0.0003381091968009574
1.17815e-05	-0.00038302862774017044
1.17818e-05	-0.0004290687629430998
1.17820e-05	-0.00047518182406961157
1.17823e-05	-0.0005215879399405344
1.17825e-05	-0.0005677238732374361
1.17827e-05	-0.0006127740707509049
1.17830e-05	-0.0006571990016831939
1.17833e-05	-0.0006991112824047838
1.17835e-05	-0.0007401393935668034
1.17838e-05	-0.0007776144460892988
1.17840e-05	-0.0008139912544954936
1.17843e-05	-0.0008459547400214146
1.17845e-05	-0.0008770620317060997
1.17848e-05	-0.0009047286859110495
1.17850e-05	-0.0009315957839593792
1.17853e-05	-0.0009552498445527147
1.17855e-05	-0.0009789039051462105
1.17858e-05	-0.0010013690247779718
1.17860e-05	-0.0010190563538689838
1.17863e-05	-0.0010367436829601155
1.17865e-05	-0.0010534193240959
1.17868e-05	-0.0010660294705612152
1.17870e-05	-0.0010786396170266162
1.17873e-05	-0.0010904609302009461
1.17875e-05	-0.001099112296037349
1.17878e-05	-0.0011077636618738102
1.17880e-05	-0.0011150645314219757
1.17883e-05	-0.0011169383960978382
1.17885e-05	-0.0011188122607737132
1.17888e-05	-0.0011206861254495885
1.17890e-05	-0.001122559990125451
1.17893e-05	-0.0011244338548013263
1.17895e-05	-0.0011263077194772013
1.17898e-05	-0.001128181584153064
1.17900e-05	-0.0011288978838957385
1.17903e-05	-0.0011249624784932875
1.17905e-05	-0.0011210270730908631
1.17908e-05	-0.0011170916676884123
1.17910e-05	-0.0011131562622859613
1.17912e-05	-0.001109220856883537
1.17915e-05	-0.001105285451481086
1.17918e-05	-0.0011013500460786351
1.17920e-05	-0.0010970971620885847
1.17923e-05	-0.0010915684820397018
1.17925e-05	-0.0010860398019908188
1.17928e-05	-0.0010805111219419359
1.17930e-05	-0.0010749824418930904
1.17933e-05	-0.0010694537618442075
1.17935e-05	-0.0010642014869948052
1.17938e-05	-0.0010600599537131793
1.17940e-05	-0.0010559184204315252
1.17943e-05	-0.001051776887149871
1.17945e-05	-0.001047635353868245
1.17948e-05	-0.0010434938205865908
1.17950e-05	-0.0010399619687401526
1.17953e-05	-0.0010388801377851813
1.17955e-05	-0.0010377983068302029
1.17958e-05	-0.0010367164758752245
1.17960e-05	-0.0010356346449202532
1.17963e-05	-0.0010345528139652747
1.17965e-05	-0.0010334709830102963
1.17968e-05	-0.001032389152055325
1.17970e-05	-0.0010313073211003466
1.17973e-05	-0.0010302254901453682
1.17975e-05	-0.0010291436591903969
1.17978e-05	-0.0010280618282354184
1.17980e-05	-0.00102697999728044
1.17983e-05	-0.0010258981663254687
1.17985e-05	-0.0010254033499124129
1.17988e-05	-0.0010272674668839288
1.17990e-05	-0.001029131583855432
1.17993e-05	-0.001030995700826948
1.17995e-05	-0.0010328598177984636
1.17997e-05	-0.001034723934769967
1.18000e-05	-0.0010365880517414828
1.18003e-05	-0.0010384521687129987
1.18005e-05	-0.001040316285684502
1.18008e-05	-0.0010421804026560177
1.18010e-05	-0.0010440445196275335
1.18013e-05	-0.0010459086365990494
1.18015e-05	-0.0010477727535705527
1.18018e-05	-0.0010496368705420686
1.18020e-05	-0.0010515910469907589
1.18023e-05	-0.0010539071298184927
1.18025e-05	-0.0010562232126462422
1.18028e-05	-0.0010585392954739917
1.18030e-05	-0.0010608553783017255
1.18033e-05	-0.001063171461129475
1.18035e-05	-0.0010652727850854944
1.18038e-05	-0.0010665110948637605
1.18040e-05	-0.001067749404642035
1.18043e-05	-0.0010689877144203096
1.18045e-05	-0.0010702260241985757
1.18048e-05	-0.0010714643339768501
1.18050e-05	-0.0010718120071726452
1.18053e-05	-0.0010685806338231961
1.18055e-05	-0.0010653492604737254
1.18058e-05	-0.0010621178871242547
1.18060e-05	-0.0010588865137748059
1.18063e-05	-0.0010556551404253352
1.18065e-05	-0.0010524237670758644
1.18068e-05	-0.0010480279119117653
1.18070e-05	-0.0010389525559296145
1.18073e-05	-0.001029877199947464
1.18075e-05	-0.0010208018439653748
1.18078e-05	-0.0010117264879832243
1.18080e-05	-0.0010026511320010735
1.18082e-05	-0.0009935757760189845
1.18085e-05	-0.000983498349163287
1.18088e-05	-0.0009693940741304091
1.18090e-05	-0.0009552897990976268
1.18093e-05	-0.0009411855240647489
1.18095e-05	-0.0009270812490318709
1.18098e-05	-0.000912976973998993
1.18100e-05	-0.0008988726989662106
1.18103e-05	-0.0008847684239333327
1.18105e-05	-0.0008691684121585272
1.18108e-05	-0.0008529251142414897
1.18110e-05	-0.0008366818163243423
1.18113e-05	-0.0008204385184071947
1.18115e-05	-0.0008041952204901573
1.18118e-05	-0.0007879519225730099
1.18120e-05	-0.0007717086246558624
1.18123e-05	-0.0007556407131506781
1.18125e-05	-0.0007402775965572675
1.18128e-05	-0.000724914479963857
1.18130e-05	-0.0007098711085092059
1.18133e-05	-0.0006961126413093041
1.18135e-05	-0.0006823541741094024
1.18138e-05	-0.0006691062289712812
1.18140e-05	-0.0006579098301741467
1.18143e-05	-0.0006467134313770122
1.18145e-05	-0.0006362038488338118
1.18148e-05	-0.0006284542554827755
1.18150e-05	-0.000621410718457689
1.18153e-05	-0.0006172044873609438
1.18155e-05	-0.0006136983683299333
1.18158e-05	-0.0006130056680612303
1.18160e-05	-0.0006130070022147036
1.18163e-05	-0.0006157973319597525
1.18165e-05	-0.0006193402108443999
1.18167e-05	-0.0006259072282524655
1.18170e-05	-0.0006332372161031578
1.18173e-05	-0.0006436332207576249
1.18175e-05	-0.0006548816767846706
1.18178e-05	-0.0006695557310881874
1.18180e-05	-0.0006842297853917044
1.18183e-05	-0.0006998184941262296
1.18185e-05	-0.0007190827657641447
1.18188e-05	-0.0007383470374021905
1.18190e-05	-0.0007584103451941191
1.18193e-05	-0.0007816846007999968
1.18195e-05	-0.0008049588564060322
1.18198e-05	-0.0008287964461675016
1.18200e-05	-0.00085489780905882
1.18203e-05	-0.0008809991719503152
1.18205e-05	-0.0009074548320801379
1.18208e-05	-0.0009353342449868143
1.18210e-05	-0.0009632136578936796
1.18213e-05	-0.0009911988187060708
1.18215e-05	-0.0010196089302598453
1.18218e-05	-0.0010480190418138123
1.18220e-05	-0.0010762389215769295
1.18223e-05	-0.0011036943498815152
1.18225e-05	-0.0011311497781862866
1.18228e-05	-0.0011581409472050642
1.18230e-05	-0.0011832664780637285
1.18233e-05	-0.001208392008922563
1.18235e-05	-0.0012327338253207735
1.18238e-05	-0.0012539262645315415
1.18240e-05	-0.001275118703742453
1.18243e-05	-0.001295700219920854
1.18245e-05	-0.001313826725813455
1.18248e-05	-0.0013322309823379278
1.18250e-05	-0.0013517513870865464
1.18252e-05	-0.0013712717918350327
1.18255e-05	-0.0013910750795766281
1.18258e-05	-0.0014120151400710958
1.18260e-05	-0.0014329552005654216
1.18263e-05	-0.0014538952610598892
1.18265e-05	-0.0014754195466429095
1.18268e-05	-0.001499291556121419
1.18270e-05	-0.0015231635655997666
1.18273e-05	-0.001547035575078276
1.18275e-05	-0.0015717099587749207
1.18278e-05	-0.0015996087043860417
1.18280e-05	-0.0016275074499973517
1.18283e-05	-0.0016554061956086615
1.18285e-05	-0.0016833049412197827
1.18288e-05	-0.0017119464351900908
1.18290e-05	-0.0017435726829909772
1.18293e-05	-0.0017751989307916497
1.18295e-05	-0.0018068251785925363
1.18298e-05	-0.0018384514263934228
1.18300e-05	-0.0018703788098353242
1.18303e-05	-0.0019035163147780394
1.18305e-05	-0.0019366538197207546
1.18308e-05	-0.0019697913246632453
1.18310e-05	-0.0020029288296059605
1.18313e-05	-0.0020360663345486757
1.18315e-05	-0.002069203839491166
1.18318e-05	-0.0021023413444338813
1.18320e-05	-0.002134534761676026
1.18323e-05	-0.002162934337643175
1.18325e-05	-0.002191333913610517
1.18328e-05	-0.0022197334895778585
1.18330e-05	-0.0022481330655450076
1.18333e-05	-0.0022765326415123493
1.18335e-05	-0.002304932217479691
1.18337e-05	-0.00233333179344684
1.18340e-05	-0.0023591602619875544
1.18343e-05	-0.0023746566676569507
1.18345e-05	-0.0023901530733262417
1.18348e-05	-0.002405649478995638
1.18350e-05	-0.0024211458846650344
1.18352e-05	-0.0024366422903343253
1.18355e-05	-0.0024521386960037216
1.18358e-05	-0.002467635101673118
1.18360e-05	-0.002483131507342514
1.18363e-05	-0.002496026217614499
1.18365e-05	-0.0024984659464490654
1.18368e-05	-0.0025009056752836323
1.18370e-05	-0.002503345404118182
1.18373e-05	-0.0025057851329527486
1.18375e-05	-0.002508224861787315
1.18378e-05	-0.002510664590621865
1.18380e-05	-0.0025131043194564317
1.18383e-05	-0.002515544048290998
1.18385e-05	-0.002516037221292947
1.18388e-05	-0.0025087081084428178
1.18390e-05	-0.002501378995592688
1.18393e-05	-0.002494049882742608
1.18395e-05	-0.0024867207698924783
1.18398e-05	-0.002479391657042349
1.18400e-05	-0.002472062544192269
1.18403e-05	-0.0024647334313421393
1.18405e-05	-0.0024574043184920095
1.18408e-05	-0.0024500752056419296
1.18410e-05	-0.0024420761091369448
1.18413e-05	-0.002431384665678738
1.18415e-05	-0.0024206932222206037
1.18418e-05	-0.0024100017787623967
1.18420e-05	-0.00239931033530419
1.18422e-05	-0.0023886188918460557
1.18425e-05	-0.002377927448387849
1.18428e-05	-0.002367236004929642
1.18430e-05	-0.002356544561471508
1.18433e-05	-0.002345853118013301
1.18435e-05	-0.002335430083709283
1.18437e-05	-0.0023262010410966074
1.18440e-05	-0.0023175632499760315
1.18443e-05	-0.0023094256325634655
1.18445e-05	-0.0023008526980320652
1.18448e-05	-0.002290052992302952
1.18450e-05	-0.0022758004227987935
1.18453e-05	-0.0022576708471677815
1.18455e-05	-0.002235610725758336
1.18458e-05	-0.002212419118771906
1.18460e-05	-0.0021846806072095587
1.18463e-05	-0.002155749996014549
1.18465e-05	-0.0021220289010635152
1.18468e-05	-0.0020861915025714977
1.18470e-05	-0.0020418496825900644
1.18473e-05	-0.00199750786260833
1.18475e-05	-0.0019512938113754273
1.18478e-05	-0.001897556149574513
1.18480e-05	-0.0018429208754889373
1.18483e-05	-0.0017841198435420889
1.18485e-05	-0.0017224387928775268
1.18488e-05	-0.001657525477316835
1.18490e-05	-0.0015892495862919495
1.18493e-05	-0.0015179165037690204
1.18495e-05	-0.001443979481418922
1.18498e-05	-0.0013678914680622498
1.18500e-05	-0.0012901048321620737
1.18503e-05	-0.0012110324516687847
1.18505e-05	-0.001130879358968798
1.18507e-05	-0.0010496405241178669
1.18510e-05	-0.000967449757194642
1.18513e-05	-0.0008847138910517459
1.18515e-05	-0.0008019322310050535
1.18518e-05	-0.0007196040475730873
1.18520e-05	-0.0006382281118934912
1.18522e-05	-0.0005582782979404883
1.18525e-05	-0.00048009846612936724
1.18528e-05	-0.0004039007157077116
1.18530e-05	-0.00032998424108004386
1.18533e-05	-0.00025881916123051703
1.18535e-05	-0.00019093348375703964
1.18538e-05	-0.00012685511434183547
1.18540e-05	-6.711224991959288e-05
1.18543e-05	-1.2253123818546881e-05
1.18545e-05	3.7087231393013636e-05
1.18548e-05	8.027623439277653e-05
1.18550e-05	0.00011693724151855533
1.18553e-05	0.00014694923448550407
1.18555e-05	0.00017026046662925383
1.18558e-05	0.00018681926404540063
1.18560e-05	0.00019657380811560565
1.18563e-05	0.00019945973842199217
1.18565e-05	0.0001953583352427721
1.18568e-05	0.00018415244685996074
1.18570e-05	0.0001658852566419757
1.18573e-05	0.00014076007013099216
1.18575e-05	0.00010902358884590306
1.18578e-05	7.092253320675046e-05
1.18580e-05	2.6703525179440008e-05
1.18583e-05	-2.339467129567844e-05
1.18585e-05	-7.916735199318614e-05
1.18588e-05	-0.00014040883433097582
1.18590e-05	-0.0002068130142673081
1.18592e-05	-0.00027797349051476784
1.18595e-05	-0.00035345676447304616
1.18598e-05	-0.0004328292938309071
1.18600e-05	-0.0005159265416505571
1.18603e-05	-0.0006025939070450898
1.18605e-05	-0.0006901731973422167
1.18607e-05	-0.0007814170818677915
1.18610e-05	-0.0008731841714763027
1.18613e-05	-0.0009670537744824719
1.18615e-05	-0.0010610100708988493
1.18618e-05	-0.0011553147470658772
1.18620e-05	-0.0012492690656387793
1.18623e-05	-0.001341815462993233
1.18625e-05	-0.0014335831100697432
1.18628e-05	-0.001522221328655145
1.18630e-05	-0.001609615300498576
1.18633e-05	-0.0016920092340512662
1.18635e-05	-0.0017726635117208585
1.18638e-05	-0.001846326936421357
1.18640e-05	-0.0019177649228979028
1.18643e-05	-0.0019802599272836126
1.18645e-05	-0.0020402256576610663
1.18648e-05	-0.0020900274338463607
1.18650e-05	-0.0021372041783417626
1.18653e-05	-0.0021738321638788147
1.18655e-05	-0.002207733560765212
1.18658e-05	-0.002230678089374804
1.18660e-05	-0.0022507982767001012
1.18663e-05	-0.0022595687742158694
1.18665e-05	-0.0022655311684264337
1.18668e-05	-0.0022602091255737753
1.18670e-05	-0.002252225538775207
1.18673e-05	-0.002233546467557368
1.18675e-05	-0.0022123487930032215
1.18678e-05	-0.0021810300446336206
1.18680e-05	-0.002147910597177668
1.18683e-05	-0.002106409844360191
1.18685e-05	-0.0020592256000666553
1.18688e-05	-0.002006689877336624
1.18690e-05	-0.0019491881999006177
1.18692e-05	-0.0018871005336270727
1.18695e-05	-0.001821396931232245
1.18698e-05	-0.0017660625352930255
1.18700e-05	-0.0017001926287134083
1.18703e-05	-0.024999001728694355
1.18705e-05	-0.0243616823111263
1.18708e-05	-0.018952855381783453
1.18710e-05	-0.014776973142325494
1.18713e-05	0.0014964358911079296
1.18715e-05	0.005768886634810453
1.18718e-05	0.00409797862996464
1.18720e-05	0.0013014681217582845
1.18723e-05	-0.004944862961526407
1.18725e-05	-0.009880443882482265
1.18728e-05	-0.0091648114472472
1.18730e-05	-0.0054204039114930675
1.18733e-05	-0.0001865524138406102
1.18735e-05	0.0039278401072248325
1.18738e-05	0.0042344679295145135
1.18740e-05	0.0020625012961952727
1.18743e-05	-0.0019922356064720824
1.18745e-05	-0.005182830017130788
1.18748e-05	-0.004815071161478704
1.18750e-05	-0.002536331209474559
1.18753e-05	0.0006854251931409422
1.18755e-05	0.003213121850482016
1.18758e-05	0.0033607951596239965
1.18760e-05	0.001959599025450822
1.18763e-05	-0.0006183226142257054
1.18765e-05	-0.0026531660903491667
1.18768e-05	-0.0024580540448289165
1.18770e-05	-0.001065514640792847
1.18773e-05	0.0009177213085377401
1.18775e-05	0.0024659764380310684
1.18777e-05	0.0025231292356974865
1.18780e-05	0.00160986617394281
1.18783e-05	-4.063464825280875e-05
1.18785e-05	-0.0013510452443101198
1.18788e-05	-0.0012647304599570862
1.18790e-05	-0.0004284840534588201
1.18793e-05	0.0007776833971014507
1.18795e-05	0.0017113932532780826
1.18798e-05	0.0017112666198304115
1.18800e-05	0.001103657969464356
1.18803e-05	3.481129326411735e-05
1.18805e-05	-0.0008202880664132221
1.18808e-05	-0.0007996744337720924
1.18810e-05	-0.0003084166201497463
1.18813e-05	0.00041556053325686546
1.18815e-05	0.0009700161754236708
1.18818e-05	0.0009408460990199106
1.18820e-05	0.0005326714117979453
1.18823e-05	-0.00016272042158738
1.18825e-05	-0.0007223620377863902
1.18828e-05	-0.0007314794228529965
1.18830e-05	-0.0004436945668885499
1.18833e-05	-7.912092801301936e-06
1.18835e-05	0.00032405459361585455
1.18838e-05	0.0002929844323413789
1.18840e-05	2.7231204354736025e-05
1.18843e-05	-0.00041551027250610396
1.18845e-05	-0.0007700247545923401
1.18848e-05	-0.0007762376209919368
1.18850e-05	-0.0005929430729500663
1.18853e-05	-0.0003135443591121586
1.18855e-05	-9.596946754839863e-05
1.18858e-05	-0.0001027723416723329
1.18860e-05	-0.00025372673706411554
1.18862e-05	-0.0005128724049168067
1.18865e-05	-0.0007142677815060053
1.18868e-05	-0.0006952063858154129
1.18870e-05	-0.000555363529905543
1.18873e-05	-0.00035344645357252534
1.18875e-05	-0.00018857337308764103
1.18878e-05	-0.0001627510322024422
1.18880e-05	-0.000225906600158233
1.18883e-05	-0.00035569869900717695
1.18885e-05	-0.0004483716093186461
1.18888e-05	-0.0004022054448066984
1.18890e-05	-0.0002798377187887783
1.18893e-05	-0.00011823903222181323
1.18895e-05	2.0311153519492938e-05
1.18898e-05	7.172981371692956e-05
1.18900e-05	6.719783911998682e-05
1.18903e-05	2.052312262549121e-05
1.18905e-05	-3.4921984079615535e-06
1.18908e-05	5.867290989241815e-05
1.18910e-05	0.00016758512581746098
1.18913e-05	0.0002998917153632856
1.18915e-05	0.0004163893589868243
1.18918e-05	0.0004767486215945501
1.18920e-05	0.0005003142128522978
1.18923e-05	0.0004955471615197857
1.18925e-05	0.0005028490027117089
1.18928e-05	0.0005618150859861956
1.18930e-05	0.0006475496228983523
1.18933e-05	0.0007452315358433345
1.18935e-05	0.0008301127865427707
1.18938e-05	0.000876742169308329
