Time(s)	Current(A)
2.55000e-06	0.004541488703836737
2.55025e-06	0.004515728536343471
2.55050e-06	0.004490436276220743
2.55075e-06	0.0044705064816611614
2.55100e-06	0.0044598719264902255
2.55125e-06	0.0044492373713192895
2.55150e-06	0.004438602816148372
2.55175e-06	0.004427968260977436
2.55200e-06	0.004417333705806501
2.55225e-06	0.004406699150635582
2.55250e-06	0.004396064595464647
2.55275e-06	0.004385430040293711
2.55300e-06	0.004374795485122793
2.55325e-06	0.0043641609299518574
2.55350e-06	0.0043535263747809215
2.55375e-06	0.0043428918196099855
2.55400e-06	0.004332257264439068
2.55425e-06	0.004321622709268132
2.55450e-06	0.004312297640856871
2.55475e-06	0.004315192315595115
2.55500e-06	0.0043180869903333636
2.55525e-06	0.004320981665071612
2.55550e-06	0.004323876339809862
2.55575e-06	0.004326771014548105
2.55600e-06	0.0043296656892863545
2.55625e-06	0.004332560364024603
2.55650e-06	0.004335455038762847
2.55675e-06	0.004338349713501096
2.55700e-06	0.0043412443882393445
2.55725e-06	0.004344139062977589
2.55750e-06	0.004347033737715837
2.55775e-06	0.004349928412454086
2.55800e-06	0.004352823087192335
2.55825e-06	0.004355967002589824
2.55850e-06	0.004361436758104496
2.55875e-06	0.0043669065136191666
2.55900e-06	0.004372376269133829
2.55925e-06	0.004377846024648501
2.55950e-06	0.0043833157801631715
2.55975e-06	0.004388785535677843
2.56000e-06	0.0043942552911925056
2.56025e-06	0.0043997250467071765
2.56050e-06	0.004405194802221848
2.56075e-06	0.004413302371845679
2.56100e-06	0.0044231921352825
2.56125e-06	0.00443308189871932
2.56150e-06	0.004442971662156124
2.56175e-06	0.0044528614255929435
2.56200e-06	0.004462751189029764
2.56225e-06	0.004472640952466584
2.56250e-06	0.004482530715903388
2.56275e-06	0.004492420479340208
2.56300e-06	0.004504022169571484
2.56325e-06	0.004531599054334245
2.56350e-06	0.004559175939097052
2.56375e-06	0.00458675282385986
2.56400e-06	0.004614329708622667
2.56425e-06	0.004641906593385428
2.56450e-06	0.004669483478148235
2.56475e-06	0.004697060362911043
2.56500e-06	0.004724637247673803
2.56525e-06	0.0047522141324366106
2.56550e-06	0.0047797910171994175
2.56575e-06	0.004808645925815057
2.56600e-06	0.00484942697504223
2.56625e-06	0.0048902080242694025
2.56650e-06	0.004930989073496575
2.56675e-06	0.004971770122723679
2.56700e-06	0.005012551171950852
2.56725e-06	0.0050533322211780245
2.56750e-06	0.005094113270405128
2.56775e-06	0.005134894319632301
2.56800e-06	0.005175675368859474
2.56825e-06	0.0052164564180866456
2.56850e-06	0.005256523253720594
2.56875e-06	0.0052899252593360474
2.56900e-06	0.005323327264951502
2.56925e-06	0.005356729270566899
2.56950e-06	0.005390131276182353
2.56975e-06	0.005423533281797807
2.57000e-06	0.005456935287413205
2.57025e-06	0.005490337293028658
2.57050e-06	0.005523739298644113
2.57075e-06	0.005557141304259566
2.57100e-06	0.005590543309874964
2.57125e-06	0.005623945315490418
2.57150e-06	0.005641075086504523
2.57175e-06	0.005647210801595224
2.57200e-06	0.005653346516685935
2.57225e-06	0.005659482231776648
2.57250e-06	0.005665617946867359
2.57275e-06	0.00567175366195806
2.57300e-06	0.005677889377048772
2.57325e-06	0.005684025092139483
2.57350e-06	0.005690160807230184
2.57375e-06	0.005696296522320896
2.57400e-06	0.005702432237411607
2.57425e-06	0.005706120979525374
2.57450e-06	0.005686975293523368
2.57475e-06	0.0056678296075213614
2.57500e-06	0.0056486839215193554
2.57525e-06	0.0056295382355173815
2.57550e-06	0.0056103925495153755
2.57575e-06	0.005591246863513369
2.57600e-06	0.005572101177511396
2.57625e-06	0.005552955491509389
2.57650e-06	0.005533809805507383
2.57675e-06	0.005514664119505377
2.57700e-06	0.005489577820538197
2.57725e-06	0.005460477848417846
2.57750e-06	0.005431377876297495
2.57775e-06	0.005402277904177194
2.57800e-06	0.005373177932056843
2.57825e-06	0.005344077959936492
2.57850e-06	0.00531497798781619
2.57875e-06	0.0052858780156958395
2.57900e-06	0.005256778043575489
2.57925e-06	0.005227678071455138
2.57950e-06	0.005199747337060709
2.57975e-06	0.0051827275833172095
2.58000e-06	0.00516570782957371
2.58025e-06	0.00514868807583024
2.58050e-06	0.005131668322086741
2.58075e-06	0.005114648568343241
2.58100e-06	0.005097628814599742
2.58125e-06	0.005080609060856271
2.58150e-06	0.005063589307112771
2.58175e-06	0.005046569553369272
2.58200e-06	0.005029549799625802
2.58225e-06	0.005012530045882303
2.58250e-06	0.004995510292138803
2.58275e-06	0.004978490538395332
2.58300e-06	0.0049637151741798126
2.58325e-06	0.004969883789252779
2.58350e-06	0.004976052404325746
2.58375e-06	0.004982221019398703
2.58400e-06	0.00498838963447167
2.58425e-06	0.004994558249544637
2.58450e-06	0.005000726864617594
2.58475e-06	0.0050068954796905615
2.58500e-06	0.005013064094763528
2.58525e-06	0.005019232709836495
2.58550e-06	0.005025401324909452
2.58575e-06	0.005031569939982419
2.58600e-06	0.005037738555055386
2.58625e-06	0.005043907170128343
2.58650e-06	0.005051165592135366
2.58675e-06	0.005068593770136902
2.58700e-06	0.0050860219481384085
2.58725e-06	0.0051034501261399455
2.58750e-06	0.005120878304141482
2.58775e-06	0.005138306482143019
2.58800e-06	0.005155734660144525
2.58825e-06	0.005173162838146062
2.58850e-06	0.0051905910161475985
2.58875e-06	0.005208019194149106
2.58900e-06	0.005225447372150642
2.58925e-06	0.005242337888791652
2.58950e-06	0.005254211108631204
2.58975e-06	0.005266084328470735
2.59000e-06	0.005277957548310286
2.59025e-06	0.005289830768149837
2.59050e-06	0.005301703987989368
2.59075e-06	0.00531357720782892
2.59100e-06	0.005325450427668471
2.59125e-06	0.005337323647508002
2.59150e-06	0.005349196867347553
2.59175e-06	0.005361070087187105
2.59200e-06	0.0053709619694552796
2.59225e-06	0.00536236459549289
2.59250e-06	0.0053537672215304855
2.59275e-06	0.005345169847568082
2.59300e-06	0.005336572473605692
2.59325e-06	0.005327975099643288
2.59350e-06	0.005319377725680884
2.59375e-06	0.00531078035171848
2.59400e-06	0.00530218297775609
2.59425e-06	0.005293585603793686
2.59450e-06	0.0052849882298312825
2.59475e-06	0.005276390855868893
2.59500e-06	0.0052677934819064885
2.59525e-06	0.005248643756282876
2.59550e-06	0.0052223645154362815
2.59575e-06	0.005196085274589642
2.59600e-06	0.005169806033743003
2.59625e-06	0.005143526792896364
2.59650e-06	0.005117247552049769
2.59675e-06	0.00509096831120313
2.59700e-06	0.00506468907035649
2.59725e-06	0.0050384098295098954
2.59750e-06	0.005012130588663256
2.59775e-06	0.004985851347816617
2.59800e-06	0.004959572106969978
2.59825e-06	0.0049332860441615115
2.59850e-06	0.0049069363208224265
2.59875e-06	0.004880586597483342
2.59900e-06	0.004854236874144301
2.59925e-06	0.004827887150805216
2.59950e-06	0.00480153742746613
2.59975e-06	0.004775187704127089
2.60000e-06	0.004748837980788004
2.60025e-06	0.004722488257448919
2.60050e-06	0.0046961385341098335
2.60075e-06	0.0046715635845352215
2.60100e-06	0.004663550298838712
2.60125e-06	0.004655537013142203
2.60150e-06	0.004647523727445708
2.60175e-06	0.004639510441749198
2.60200e-06	0.004631497156052689
2.60225e-06	0.00462348387035618
2.60250e-06	0.004615470584659684
2.60275e-06	0.004607457298963175
2.60300e-06	0.004599444013266666
2.60325e-06	0.004594006524689728
2.60350e-06	0.004612605613037822
2.60375e-06	0.004631204701385918
2.60400e-06	0.004649803789733981
2.60425e-06	0.004668402878082076
2.60450e-06	0.004687001966430171
2.60475e-06	0.004705601054778266
2.60500e-06	0.00472420014312633
2.60525e-06	0.0047427992314744245
2.60550e-06	0.004761398319822519
2.60575e-06	0.004779997408170583
2.60600e-06	0.00480863057571767
2.60625e-06	0.0048440430965974645
2.60650e-06	0.004879455617477258
2.60675e-06	0.004914868138356992
2.60700e-06	0.004950280659236785
2.60725e-06	0.004985693180116579
2.60750e-06	0.005021105700996313
2.60775e-06	0.005056518221876106
2.60800e-06	0.005091930742755901
2.60825e-06	0.0051273432636356345
2.60850e-06	0.005162568403369262
2.60875e-06	0.005196044957664868
2.60900e-06	0.005229521511960474
2.60925e-06	0.005262998066256023
2.60950e-06	0.005296474620551629
2.60975e-06	0.005329951174847235
2.61000e-06	0.005363427729142785
2.61025e-06	0.00539690428343839
2.61050e-06	0.005430380837733996
2.61075e-06	0.005450666442422063
2.61100e-06	0.00546203980848693
2.61125e-06	0.0054734131745518165
2.61150e-06	0.005484786540616703
2.61175e-06	0.00549615990668157
2.61200e-06	0.005507533272746456
2.61225e-06	0.005518906638811342
2.61250e-06	0.005530280004876209
2.61275e-06	0.005538121318981674
2.61300e-06	0.005513002568804736
2.61325e-06	0.005487883818627797
2.61350e-06	0.005462765068450902
2.61375e-06	0.005437646318273964
2.61400e-06	0.005412527568097025
2.61425e-06	0.005387408817920129
2.61450e-06	0.005362290067743191
2.61475e-06	0.005337171317566253
2.61500e-06	0.005312052567389314
2.61525e-06	0.005269045749944604
2.61550e-06	0.00521395316697531
2.61575e-06	0.005158860584006017
2.61600e-06	0.0051037680010368154
2.61625e-06	0.0050486754180675214
2.61650e-06	0.004993582835098227
2.61675e-06	0.004938490252129027
2.61700e-06	0.004883397669159733
2.61725e-06	0.004828305086190439
2.61750e-06	0.004772405620713359
2.61775e-06	0.004708976566308459
2.61800e-06	0.00464554751190345
2.61825e-06	0.004582118457498442
2.61850e-06	0.004518689403093541
2.61875e-06	0.004455260348688534
2.61900e-06	0.004391831294283525
2.61925e-06	0.004329549872449594
2.61950e-06	0.00427797781835722
2.61975e-06	0.0042264057642648475
2.62000e-06	0.004174833710172474
2.62025e-06	0.004123261656080188
2.62050e-06	0.004071689601987815
2.62075e-06	0.004020117547895442
2.62100e-06	0.003972038717907477
2.62125e-06	0.003956557622146411
2.62150e-06	0.003941076526385345
2.62175e-06	0.00392559543062428
2.62200e-06	0.00391011433486324
2.62225e-06	0.0038946332391021736
2.62250e-06	0.003879152143341108
2.62275e-06	0.003863671047580068
2.62300e-06	0.003848189951819002
2.62325e-06	0.003832708856057936
2.62350e-06	0.0038216641268106963
2.62375e-06	0.0038520182578238617
2.62400e-06	0.003882372388837027
2.62425e-06	0.0039127265198501925
2.62450e-06	0.003943080650863306
2.62475e-06	0.003973434781876471
2.62500e-06	0.004003788912889637
2.62525e-06	0.00403414304390275
2.62550e-06	0.004064497174915915
2.62575e-06	0.004094851305929081
2.62600e-06	0.004127775574418479
2.62625e-06	0.004184683605723066
2.62650e-06	0.00424159163702775
2.62675e-06	0.0042984996683324336
2.62700e-06	0.0043554076996370214
2.62725e-06	0.004412315730941705
2.62750e-06	0.004469223762246389
2.62775e-06	0.004526131793550976
2.62800e-06	0.004585009888851275
2.62825e-06	0.004645219024065756
2.62850e-06	0.004705428159280237
2.62875e-06	0.004765637294494616
2.62900e-06	0.004825846429709096
2.62925e-06	0.004886055564923578
2.62950e-06	0.004946264700137957
2.62975e-06	0.005004292084411009
2.63000e-06	0.005041960014145074
2.63025e-06	0.005079627943879139
2.63050e-06	0.005117295873613139
2.63075e-06	0.005154963803347203
2.63100e-06	0.005192631733081268
2.63125e-06	0.005230299662815269
2.63150e-06	0.005267967592549333
2.63175e-06	0.0053056355222833975
2.63200e-06	0.005343303452017398
2.63225e-06	0.005354868597413982
2.63250e-06	0.005348797844736814
2.63275e-06	0.005342727092059647
2.63300e-06	0.0053366563393824895
2.63325e-06	0.005330585586705323
2.63350e-06	0.005324514834028155
2.63375e-06	0.005318444081350998
2.63400e-06	0.005312373328673831
2.63425e-06	0.005306302575996664
2.63450e-06	0.00529666654562201
2.63475e-06	0.0052537603981942255
2.63500e-06	0.005210854250766369
2.63525e-06	0.005167948103338512
2.63550e-06	0.005125041955910728
2.63575e-06	0.005082135808482871
2.63600e-06	0.005039229661055014
2.63625e-06	0.00499632351362723
2.63650e-06	0.004951702810807231
2.63675e-06	0.004891082384141239
2.63700e-06	0.004830461957475248
2.63725e-06	0.0047698415308093595
2.63750e-06	0.004709221104143368
2.63775e-06	0.004648600677477376
2.63800e-06	0.004587980250811487
2.63825e-06	0.004527359824145496
2.63850e-06	0.00446706781143824
2.63875e-06	0.004409840460666807
2.63900e-06	0.00435261310989547
2.63925e-06	0.004295385759124037
2.63950e-06	0.004238158408352603
2.63975e-06	0.004180931057581267
2.64000e-06	0.004123703706809833
2.64025e-06	0.0040664763560384
2.64050e-06	0.004020690331260554
2.64075e-06	0.003982634441952106
2.64100e-06	0.003944578552643657
2.64125e-06	0.003906522663335209
2.64150e-06	0.003868466774026825
2.64175e-06	0.003830410884718377
2.64200e-06	0.0037923549954099285
2.64225e-06	0.0037563230576030814
2.64250e-06	0.003739178036634837
2.64275e-06	0.0037220330156665935
2.64300e-06	0.0037048879946983493
2.64325e-06	0.003687742973730134
2.64350e-06	0.00367059795276189
2.64375e-06	0.0036534529317936463
2.64400e-06	0.0036363079108254312
2.64425e-06	0.003619162889857187
2.64450e-06	0.0036020178688889433
2.64475e-06	0.0035848728479207282
2.64500e-06	0.003567727826952484
2.64525e-06	0.003559906337025556
2.64550e-06	0.0035583841307696325
2.64575e-06	0.0035568619245137114
2.64600e-06	0.0035553397182577877
2.64625e-06	0.003553817512001864
2.64650e-06	0.003552295305745943
2.64675e-06	0.003550773099490019
2.64700e-06	0.0035492508932340955
2.64725e-06	0.003547728686978172
2.64750e-06	0.0035462064807222507
2.64775e-06	0.003544684274466327
2.64800e-06	0.0035436291536398096
2.64825e-06	0.0035469327359024657
2.64850e-06	0.0035502363181651275
2.64875e-06	0.0035535399004277893
2.64900e-06	0.0035568434826904454
2.64925e-06	0.003560147064953107
2.64950e-06	0.003563450647215769
2.64975e-06	0.0035667542294784307
2.65000e-06	0.003570057811741087
2.65025e-06	0.0035736866070378657
2.65050e-06	0.0035803501941891677
2.65075e-06	0.0035870137813404585
2.65100e-06	0.003593677368491761
2.65125e-06	0.003600340955643063
2.65150e-06	0.0036070045427943655
2.65175e-06	0.0036136681299456562
2.65200e-06	0.0036203317170969587
2.65225e-06	0.0036269953042482607
2.65250e-06	0.0036352654922280577
2.65275e-06	0.0036585280039975365
2.65300e-06	0.003681790515767016
2.65325e-06	0.003705053027536455
2.65350e-06	0.003728315539305934
2.65375e-06	0.003751578051075413
2.65400e-06	0.003774840562844892
2.65425e-06	0.003798103074614332
2.65450e-06	0.0038213655863838106
2.65475e-06	0.0038446280981532894
2.65500e-06	0.003867890609922729
2.65525e-06	0.0038926889850208445
2.65550e-06	0.0039318195824808435
2.65575e-06	0.003970950179940843
2.65600e-06	0.004010080777400775
2.65625e-06	0.004049211374860774
2.65650e-06	0.004088341972320773
2.65675e-06	0.004127472569780705
2.65700e-06	0.004166603167240704
2.65725e-06	0.0042057337647007035
2.65750e-06	0.004244864362160637
2.65775e-06	0.004283994959620636
2.65800e-06	0.004323075794259996
2.65825e-06	0.0043616922569741454
2.65850e-06	0.00440030871968823
2.65875e-06	0.0044389251824023795
2.65900e-06	0.0044775416451165295
2.65925e-06	0.0045161581078306135
2.65950e-06	0.004554774570544763
2.65975e-06	0.004593391033258913
2.66000e-06	0.004632007495973062
2.66025e-06	0.004668788963923699
2.66050e-06	0.004688446803427252
2.66075e-06	0.004708104642930805
2.66100e-06	0.004727762482434325
2.66125e-06	0.004747420321937878
2.66150e-06	0.0047670781614414315
2.66175e-06	0.004786736000944951
2.66200e-06	0.004806393840448504
2.66225e-06	0.004826051679952058
2.66250e-06	0.0048427162219322915
2.66275e-06	0.004831448196668165
2.66300e-06	0.004820180171404019
2.66325e-06	0.004808912146139873
2.66350e-06	0.004797644120875746
2.66375e-06	0.0047863760956116
2.66400e-06	0.0047751080703474546
2.66425e-06	0.004763840045083309
2.66450e-06	0.004752572019819182
2.66475e-06	0.004741303994555036
2.66500e-06	0.004727578503559579
2.66525e-06	0.004690920669134066
2.66550e-06	0.004654262834708491
2.66575e-06	0.004617605000282916
2.66600e-06	0.0045809471658574035
2.66625e-06	0.004544289331431829
2.66650e-06	0.0045076314970062545
2.66675e-06	0.004470973662580679
2.66700e-06	0.004434315828155167
2.66725e-06	0.004397657993729592
2.66750e-06	0.004360301150470101
2.66775e-06	0.004316421363498219
2.66800e-06	0.004272541576526263
2.66825e-06	0.004228661789554306
2.66850e-06	0.00418478200258235
2.66875e-06	0.004140902215610468
2.66900e-06	0.0040970224286385115
2.66925e-06	0.004053142641666555
2.66950e-06	0.004010344186467765
2.66975e-06	0.003977636399581743
2.67000e-06	0.003944928612695722
2.67025e-06	0.003912220825809756
2.67050e-06	0.003879513038923734
2.67075e-06	0.0038468052520377123
2.67100e-06	0.003814097465151691
2.67125e-06	0.003781389678265725
2.67150e-06	0.0037513341733088324
2.67175e-06	0.003746028978928222
2.67200e-06	0.003740723784547621
2.67225e-06	0.003735418590167011
2.67250e-06	0.003730113395786401
2.67275e-06	0.0037248082014057905
2.67300e-06	0.0037195030070251898
2.67325e-06	0.0037141978126445795
2.67350e-06	0.003708892618263969
2.67375e-06	0.0037035874238833684
2.67400e-06	0.003698282229502758
2.67425e-06	0.0036957368922943988
2.67450e-06	0.0037189457260172723
2.67475e-06	0.003742154559740185
2.67500e-06	0.003765363393463098
2.67525e-06	0.003788572227186011
2.67550e-06	0.0038117810609088845
2.67575e-06	0.003834989894631797
2.67600e-06	0.00385819872835471
2.67625e-06	0.0038814075620775836
2.67650e-06	0.003904616395800496
2.67675e-06	0.003927825229523409
2.67700e-06	0.003952137939231617
2.67725e-06	0.003986751693174443
2.67750e-06	0.004021365447117329
2.67775e-06	0.004055979201060215
2.67800e-06	0.0040905929550030425
2.67825e-06	0.004125206708945928
2.67850e-06	0.004159820462888814
2.67875e-06	0.004194434216831641
2.67900e-06	0.004229047970774526
2.67925e-06	0.004259626787549461
2.67950e-06	0.004287479468302718
2.67975e-06	0.004315332149055927
2.68000e-06	0.004343184829809183
2.68025e-06	0.004371037510562439
2.68050e-06	0.004398890191315649
2.68075e-06	0.004426742872068905
2.68100e-06	0.004454595552822161
2.68125e-06	0.00448037913216065
2.68150e-06	0.00448685446901033
2.68175e-06	0.00449332980586002
2.68200e-06	0.004499805142709711
2.68225e-06	0.004506280479559391
2.68250e-06	0.004512755816409082
2.68275e-06	0.004519231153258772
2.68300e-06	0.004525706490108452
2.68325e-06	0.004532181826958143
2.68350e-06	0.004538657163807834
2.68375e-06	0.0045451325006575245
2.68400e-06	0.004551607837507204
2.68425e-06	0.004558083174356895
2.68450e-06	0.004551820717994738
2.68475e-06	0.004536952190343925
2.68500e-06	0.004522083662693087
2.68525e-06	0.004507215135042248
2.68550e-06	0.00449234660739141
2.68575e-06	0.004477478079740598
2.68600e-06	0.0044626095520897595
2.68625e-06	0.004447741024438921
2.68650e-06	0.004432872496788108
2.68675e-06	0.00441800396913727
2.68700e-06	0.0044031354414864315
2.68725e-06	0.004388266913835619
2.68750e-06	0.004372861728490158
2.68775e-06	0.004352448612248661
2.68800e-06	0.004332035496007163
2.68825e-06	0.0043116223797657
2.68850e-06	0.004291209263524202
2.68875e-06	0.004270796147282705
2.68900e-06	0.0042503830310412416
2.68925e-06	0.004229969914799744
2.68950e-06	0.004209556798558246
2.68975e-06	0.0041891436823167484
2.69000e-06	0.0041687305660752854
2.69025e-06	0.004148317449833788
2.69050e-06	0.004129005649703529
2.69075e-06	0.0041199710058225205
2.69100e-06	0.0041109363619414975
2.69125e-06	0.004101901718060475
2.69150e-06	0.004092867074179467
2.69175e-06	0.004083832430298444
2.69200e-06	0.004074797786417421
2.69225e-06	0.0040657631425363985
2.69250e-06	0.004056728498655391
2.69275e-06	0.004047693854774368
2.69300e-06	0.004038659210893345
2.69325e-06	0.004029624567012337
2.69350e-06	0.004022016383367665
2.69375e-06	0.004027719504791387
2.69400e-06	0.004033422626215101
2.69425e-06	0.0040391257476388226
2.69450e-06	0.004044828869062545
2.69475e-06	0.004050531990486267
2.69500e-06	0.0040562351119099805
2.69525e-06	0.004061938233333703
2.69550e-06	0.004067641354757425
2.69575e-06	0.004073344476181138
2.69600e-06	0.00407904759760486
2.69625e-06	0.004084750719028583
2.69650e-06	0.004090453840452306
2.69675e-06	0.004100123820309083
2.69700e-06	0.004112473939959449
2.69725e-06	0.004124824059609816
2.69750e-06	0.004137174179260161
2.69775e-06	0.004149524298910528
2.69800e-06	0.004161874418560895
2.69825e-06	0.004174224538211239
2.69850e-06	0.0041865746578616065
2.69875e-06	0.004198924777511973
2.69900e-06	0.004211274897162339
2.69925e-06	0.004223625016812685
2.69950e-06	0.004235975136463051
2.69975e-06	0.004247523539112763
2.70000e-06	0.004251590555809245
2.70025e-06	0.004255657572505735
2.70050e-06	0.004259724589202225
