Time(s)	Current(A)
1.30500e-05	-0.007856497918416768
1.30503e-05	-0.00781864291538766
1.30505e-05	-0.007780960698833298
1.30508e-05	-0.00774360511753508
1.30510e-05	-0.007706867217676387
1.30513e-05	-0.007671296981753455
1.30515e-05	-0.007636430699678195
1.30518e-05	-0.007603477731023026
1.30520e-05	-0.007572293174374591
1.30523e-05	-0.007543122307440267
1.30525e-05	-0.00751634709886259
1.30528e-05	-0.00749285781468195
1.30530e-05	-0.007473970047116457
1.30533e-05	-0.007460584979583944
1.30535e-05	-0.007453804192523028
1.30538e-05	-0.007452457732910782
1.30540e-05	-0.007454804070669772
1.30543e-05	-0.007464131266254578
1.30545e-05	-0.007478312432652662
1.30548e-05	-0.007501669537162784
1.30550e-05	-0.0075250266416729055
1.30553e-05	-0.0075566049024848175
1.30555e-05	-0.007603724423089428
1.30558e-05	-0.007650843943694039
1.30560e-05	-0.007697963464298329
1.30563e-05	-0.00774508298490294
1.30565e-05	-0.0078007441344019315
1.30567e-05	-0.00787255236453331
1.30570e-05	-0.007944360594665174
1.30573e-05	-0.008016168824797039
1.30575e-05	-0.008087977054928903
1.30578e-05	-0.008165021292541923
1.30580e-05	-0.008251963669731717
1.30583e-05	-0.008338906046921514
1.30585e-05	-0.008428142792205828
1.30588e-05	-0.008521716807008603
1.30590e-05	-0.008615290821811375
1.30593e-05	-0.0087100009580305
1.30595e-05	-0.008806858816231366
1.30598e-05	-0.008903716674432235
1.30600e-05	-0.009000231752191699
1.30603e-05	-0.009096098838393605
1.30605e-05	-0.009190807248300731
1.30608e-05	-0.009283325298523694
1.30610e-05	-0.009374053458086166
1.30613e-05	-0.009461398011407766
1.30615e-05	-0.009546133932002923
1.30618e-05	-0.009625938497760436
1.30620e-05	-0.009701195087214431
1.30623e-05	-0.009767854190051224
1.30625e-05	-0.00983451329288847
1.30628e-05	-0.009894445886735617
1.30630e-05	-0.00994166269950487
1.30633e-05	-0.00998887951227444
1.30635e-05	-0.01002886694968294
1.30638e-05	-0.010055187988286605
1.30640e-05	-0.010081509026890447
1.30643e-05	-0.01010023304562477
1.30645e-05	-0.010104595671005107
1.30648e-05	-0.010108958296385475
1.30650e-05	-0.010102993023685612
1.30652e-05	-0.01007750391013817
1.30655e-05	-0.010052014796590552
1.30658e-05	-0.010026525683042936
1.30660e-05	-0.010001036569495319
1.30663e-05	-0.009975547455947874
1.30665e-05	-0.009922151135179918
1.30668e-05	-0.009863673729382494
1.30670e-05	-0.009805196323585466
1.30673e-05	-0.009746718917788043
1.30675e-05	-0.00968824151199062
1.30678e-05	-0.009623191927246666
1.30680e-05	-0.009545718306672987
1.30683e-05	-0.009468244686099308
1.30685e-05	-0.009388113993515343
1.30688e-05	-0.009302960376550526
1.30690e-05	-0.009216444122753131
1.30693e-05	-0.009127351942620869
1.30695e-05	-0.00903761259860099
1.30698e-05	-0.00894664985707701
1.30700e-05	-0.00885564635566731
1.30703e-05	-0.008764775562201312
1.30705e-05	-0.008674693109816606
1.30708e-05	-0.008585937117632428
1.30710e-05	-0.008499079197063861
1.30713e-05	-0.00841471328033167
1.30715e-05	-0.008333435056356553
1.30718e-05	-0.008256643147861654
1.30720e-05	-0.008184034911638195
1.30723e-05	-0.008115001301336045
1.30725e-05	-0.00805272515775537
1.30728e-05	-0.007993885572022042
1.30730e-05	-0.007941542449361284
1.30733e-05	-0.007892212175057114
1.30735e-05	-0.007848577384129942
1.30737e-05	-0.007809112506791713
1.30740e-05	-0.007777530426963927
1.30743e-05	-0.007745948347136142
1.30745e-05	-0.007721729602531602
1.30748e-05	-0.007711430494230048
1.30750e-05	-0.0077011313859284255
1.30753e-05	-0.0076908322776268025
1.30755e-05	-0.007680533169325249
1.30758e-05	-0.007670234061023626
1.30760e-05	-0.007668100113851495
1.30763e-05	-0.007681401573302951
1.30765e-05	-0.007694703032754498
1.30768e-05	-0.007708004492206044
1.30770e-05	-0.0077213059516575006
1.30773e-05	-0.007734607411109047
1.30775e-05	-0.007753851973459891
1.30778e-05	-0.007784331367359125
1.30780e-05	-0.007814810761258565
1.30783e-05	-0.007845290155158006
1.30785e-05	-0.00787576954905724
1.30788e-05	-0.007906248942956681
1.30790e-05	-0.007936728336856122
1.30793e-05	-0.007973822780016402
1.30795e-05	-0.008012121629892514
1.30798e-05	-0.008050420479768623
1.30800e-05	-0.008088719329644474
1.30803e-05	-0.008127018179520586
1.30805e-05	-0.008165317029396695
1.30808e-05	-0.008203156701617266
1.30810e-05	-0.008240128345184351
1.30813e-05	-0.008277099988751436
1.30815e-05	-0.008311202375678731
1.30818e-05	-0.008339880724764949
1.30820e-05	-0.008368559073851164
1.30822e-05	-0.008397237422937187
1.30825e-05	-0.008425915772023403
1.30828e-05	-0.00845459412110962
1.30830e-05	-0.008483272470195837
1.30833e-05	-0.00851035181653632
1.30835e-05	-0.008534408410822966
1.30838e-05	-0.008558465005109612
1.30840e-05	-0.008582521599396096
1.30843e-05	-0.008606578193682742
1.30845e-05	-0.008630634787969388
1.30848e-05	-0.008654691382255872
1.30850e-05	-0.008679611787446674
1.30853e-05	-0.00870616513929268
1.30855e-05	-0.008732718491138505
1.30858e-05	-0.008759271842984511
1.30860e-05	-0.008785825194830519
1.30863e-05	-0.008812378546676344
1.30865e-05	-0.00883893189852235
1.30868e-05	-0.008865485250368357
1.30870e-05	-0.008892038602214183
1.30873e-05	-0.00891946894499153
1.30875e-05	-0.008948557149925066
1.30878e-05	-0.008977645354858408
1.30880e-05	-0.009006733559791945
1.30883e-05	-0.009035821764725482
1.30885e-05	-0.009064909969658821
1.30888e-05	-0.009093998174592359
1.30890e-05	-0.009123086379525898
1.30893e-05	-0.009152174584459237
1.30895e-05	-0.009180071620776982
1.30898e-05	-0.009205716873981163
1.30900e-05	-0.00923136212718517
1.30903e-05	-0.00925700738038935
1.30905e-05	-0.00928265263359353
1.30907e-05	-0.009308297886797538
1.30910e-05	-0.009333943140001718
1.30913e-05	-0.009359588393205899
1.30915e-05	-0.00938523364641008
1.30918e-05	-0.009410878899614086
1.30920e-05	-0.009436524152818267
1.30923e-05	-0.009448587361665864
1.30925e-05	-0.009458177678052255
1.30928e-05	-0.009467767994438712
1.30930e-05	-0.009477358310825168
1.30933e-05	-0.009486948627211559
1.30935e-05	-0.009496538943598015
1.30938e-05	-0.00950612925998447
1.30940e-05	-0.009515719576370861
1.30943e-05	-0.009525309892757319
1.30945e-05	-0.009534900209143774
1.30948e-05	-0.00953728524842225
1.30950e-05	-0.009526049444179995
1.30953e-05	-0.009514813639937739
1.30955e-05	-0.00950357783569556
1.30958e-05	-0.009492342031453304
1.30960e-05	-0.00948110622721105
1.30963e-05	-0.00946987042296887
1.30965e-05	-0.009458634618726616
1.30968e-05	-0.00944739881448436
1.30970e-05	-0.009424182508132671
1.30973e-05	-0.00939878490325344
1.30975e-05	-0.009373387298374208
1.30978e-05	-0.00934798969349515
1.30980e-05	-0.009322592088615918
1.30983e-05	-0.009297194483736686
1.30985e-05	-0.009271796878857628
1.30988e-05	-0.009246399273978396
1.30990e-05	-0.009219234076810702
1.30992e-05	-0.009188727426204118
1.30995e-05	-0.009158220775597326
1.30998e-05	-0.009127714124990536
1.31000e-05	-0.009097207474383744
1.31003e-05	-0.00906670082377716
1.31005e-05	-0.009036194173170368
1.31008e-05	-0.009005687522563578
1.31010e-05	-0.008979442639063678
1.31013e-05	-0.008953973698527497
1.31015e-05	-0.008928504757991316
1.31018e-05	-0.008903035817455308
1.31020e-05	-0.008877566876919126
1.31023e-05	-0.008852097936382945
1.31025e-05	-0.008826628995846937
1.31028e-05	-0.008805421929807355
1.31030e-05	-0.008792271504028502
1.31033e-05	-0.008779121078249737
1.31035e-05	-0.008765970652470884
1.31038e-05	-0.008752820226692031
1.31040e-05	-0.008739669800913268
1.31043e-05	-0.008726519375134415
1.31045e-05	-0.008713368949355562
1.31048e-05	-0.008700218523576797
1.31050e-05	-0.008687068097797946
1.31053e-05	-0.008673917672019093
1.31055e-05	-0.008660767246240328
1.31058e-05	-0.008647616820461475
1.31060e-05	-0.008634466394682622
1.31063e-05	-0.008621315968903859
1.31065e-05	-0.008608165543125006
1.31068e-05	-0.008595015117346153
1.31070e-05	-0.00858186469156739
1.31073e-05	-0.008568714265788537
1.31075e-05	-0.008562252590688697
1.31077e-05	-0.008557008741176039
1.31080e-05	-0.008551764891663345
1.31083e-05	-0.008546521042150652
1.31085e-05	-0.00854127719263796
1.31088e-05	-0.008536033343125303
1.31090e-05	-0.00853078949361261
1.31093e-05	-0.008525545644099916
1.31095e-05	-0.008520301794587258
1.31098e-05	-0.008515057945074567
1.31100e-05	-0.008509814095561874
1.31103e-05	-0.008504570246049215
1.31105e-05	-0.008499326396536522
1.31108e-05	-0.008494082547023829
1.31110e-05	-0.008488838697511172
1.31113e-05	-0.00848359484799848
1.31115e-05	-0.008478350998485786
1.31118e-05	-0.008473107148973128
1.31120e-05	-0.00846844657092244
1.31123e-05	-0.00846488860824655
1.31125e-05	-0.008461330645570685
1.31128e-05	-0.008456426801115602
1.31130e-05	-0.008448978704045543
1.31133e-05	-0.008441530606975535
1.31135e-05	-0.008431573763069805
1.31138e-05	-0.00841687438843379
1.31140e-05	-0.008402175013797876
1.31143e-05	-0.008383753332496814
1.31145e-05	-0.008358295009037982
1.31148e-05	-0.008332836685579324
1.31150e-05	-0.008307378362120494
1.31153e-05	-0.008281920038661664
1.31155e-05	-0.008256461715203006
1.31158e-05	-0.008225682051648016
1.31160e-05	-0.008184842935869411
1.31162e-05	-0.008144003820091082
1.31165e-05	-0.008103164704312478
1.31168e-05	-0.008062325588533871
1.31170e-05	-0.008021486472755267
1.31173e-05	-0.007976792363188264
1.31175e-05	-0.007924810779950615
1.31178e-05	-0.007872829196712967
1.31180e-05	-0.007820847613475672
1.31183e-05	-0.007768866030238023
1.31185e-05	-0.007715187836871724
1.31188e-05	-0.007658302374617823
1.31190e-05	-0.007601416912363538
1.31193e-05	-0.007544531450109252
1.31195e-05	-0.007487645987855352
1.31198e-05	-0.007430598388251013
1.31200e-05	-0.007373244284477181
1.31203e-05	-0.007316460496899262
1.31205e-05	-0.007260754834082499
1.31208e-05	-0.007205686829882089
1.31210e-05	-0.007152328839278241
1.31213e-05	-0.007100532730051165
1.31215e-05	-0.0070510475876658305
1.31218e-05	-0.0070037582869561885
1.31220e-05	-0.00695899223264565
1.31223e-05	-0.006918996119017501
1.31225e-05	-0.0068790000053896225
1.31228e-05	-0.006841699307061295
1.31230e-05	-0.006809494017210664
1.31233e-05	-0.0067772887273602495
1.31235e-05	-0.006749016460434408
1.31238e-05	-0.0067281791733262855
1.31240e-05	-0.006707341886218305
1.31243e-05	-0.006686504599110182
1.31245e-05	-0.00666566731200206
1.31247e-05	-0.006644830024894079
1.31250e-05	-0.006623992737785957
1.31253e-05	-0.006603155450677835
1.31255e-05	-0.006594330087938012
1.31258e-05	-0.006587691744802541
1.31260e-05	-0.006581053401667025
1.31263e-05	-0.00657441505853151
1.31265e-05	-0.006567776715396038
1.31268e-05	-0.006561138372260523
1.31270e-05	-0.006554500029125007
1.31273e-05	-0.006551199201068188
1.31275e-05	-0.006554207605814841
1.31278e-05	-0.0065572160105614955
1.31280e-05	-0.00656022441530813
1.31283e-05	-0.006563232820054784
1.31285e-05	-0.006566241224801438
1.31288e-05	-0.006569249629548072
1.31290e-05	-0.006572258034294726
1.31293e-05	-0.006576819302100324
1.31295e-05	-0.006584316099579975
1.31298e-05	-0.006591812897059676
1.31300e-05	-0.0065993096945393785
1.31303e-05	-0.0066068064920190295
1.31305e-05	-0.006614303289498732
1.31308e-05	-0.006621800086978433
1.31310e-05	-0.006629296884458084
1.31313e-05	-0.006636242306713599
1.31315e-05	-0.00664214541018711
1.31318e-05	-0.006648048513660582
1.31320e-05	-0.006653951617134094
1.31323e-05	-0.0066598547206076055
1.31325e-05	-0.006665757824081077
1.31328e-05	-0.006671660927554588
1.31330e-05	-0.0066775640310281
1.31332e-05	-0.0066834671345015716
1.31335e-05	-0.006689370237975083
1.31338e-05	-0.006695273341448595
1.31340e-05	-0.006701416200343739
1.31343e-05	-0.006708012292478408
1.31345e-05	-0.006714608384613122
1.31348e-05	-0.006721204476747836
1.31350e-05	-0.006727800568882506
1.31353e-05	-0.00673439666101722
1.31355e-05	-0.006740992753151934
1.31358e-05	-0.006747588845286603
1.31360e-05	-0.0067541849374213175
1.31363e-05	-0.006760781029556032
1.31365e-05	-0.0067673771216907016
1.31368e-05	-0.006774758961324819
1.31370e-05	-0.006783626176689991
1.31373e-05	-0.006792493392055102
1.31375e-05	-0.006801360607420273
1.31378e-05	-0.006810227822785445
1.31380e-05	-0.006819095038150556
1.31383e-05	-0.006827962253515727
1.31385e-05	-0.0068368294688808985
1.31388e-05	-0.006845696684246011
1.31390e-05	-0.006854563899611182
1.31393e-05	-0.006863303583253133
1.31395e-05	-0.006871802181143214
1.31398e-05	-0.006880300779033352
1.31400e-05	-0.006888799376923491
1.31403e-05	-0.006897297974813572
1.31405e-05	-0.0069057965727037105
1.31408e-05	-0.006914295170593849
1.31410e-05	-0.00692279376848393
1.31413e-05	-0.006931292366374069
1.31415e-05	-0.006939790964264207
1.31418e-05	-0.006947516585011982
1.31420e-05	-0.006953780971089705
1.31423e-05	-0.0069600453571674265
1.31425e-05	-0.006965265667212368
1.31428e-05	-0.00696851225770747
1.31430e-05	-0.006971758848202594
1.31433e-05	-0.006972952354096836
1.31435e-05	-0.006970264712366937
1.31438e-05	-0.00696757707063702
1.31440e-05	-0.0069628863946540566
1.31443e-05	-0.006954409186139086
1.31445e-05	-0.006945931977624059
1.31448e-05	-0.006934260754315128
1.31450e-05	-0.006916551570893246
1.31453e-05	-0.006898842387471244
1.31455e-05	-0.006881133204049242
1.31458e-05	-0.00686342402062736
1.31460e-05	-0.006845714837205358
1.31463e-05	-0.006818882432991225
1.31465e-05	-0.006790388957483812
1.31468e-05	-0.006761895481976207
1.31470e-05	-0.0067334020064686
1.31473e-05	-0.006704908530961187
1.31475e-05	-0.006674107789097138
1.31478e-05	-0.006638945394851672
1.31480e-05	-0.006603783000606445
1.31483e-05	-0.006567645000492954
1.31485e-05	-0.006529662716711983
1.31488e-05	-0.006491680432931268
1.31490e-05	-0.0064531665521619435
1.31493e-05	-0.006413647741353285
1.31495e-05	-0.0063739923929812155
1.31498e-05	-0.006334078934231564
1.31500e-05	-0.006294262058690673
1.31503e-05	-0.006254798214316505
1.31505e-05	-0.006215897281917683
1.31508e-05	-0.006177742957063364
1.31510e-05	-0.0061404857719520025
1.31513e-05	-0.006104304403784088
1.31515e-05	-0.006069429116594279
1.31518e-05	-0.0060361101316003755
1.31520e-05	-0.006004597813468886
1.31523e-05	-0.005975142383416941
1.31525e-05	-0.005948165623182145
1.31528e-05	-0.005924734302387633
1.31530e-05	-0.005906463186253633
1.31533e-05	-0.005894463636625124
1.31535e-05	-0.005888921978999143
1.31538e-05	-0.005889674945027556
1.31540e-05	-0.0058965600012636146
1.31543e-05	-0.005909414022807931
1.31545e-05	-0.005929347313956039
1.31548e-05	-0.005955414799988971
1.31550e-05	-0.005986452575551856
1.31553e-05	-0.006026886177959431
1.31555e-05	-0.006074624079080461
1.31558e-05	-0.006136170014022077
1.31560e-05	-0.006197715948964111
1.31563e-05	-0.006259261883906144
1.31565e-05	-0.006320807818847761
1.31568e-05	-0.006403375015366153
1.31570e-05	-0.006489769567921503
1.31573e-05	-0.006576164120476266
1.31575e-05	-0.0066625586730316155
1.31578e-05	-0.006753970253835774
1.31580e-05	-0.006854866016278633
1.31583e-05	-0.006957757563192527
1.31585e-05	-0.007064421937663237
1.31588e-05	-0.007172572114706478
1.31590e-05	-0.0072835310503993845
1.31593e-05	-0.007395385898058662
1.31595e-05	-0.007508934376170287
1.31598e-05	-0.007622453130174364
1.31600e-05	-0.00773591569377848
1.31603e-05	-0.00784841339193277
1.31605e-05	-0.00795908711008645
1.31608e-05	-0.008068034735666285
1.31610e-05	-0.0081737193587885
1.31613e-05	-0.00827686639705449
1.31615e-05	-0.008375216389240322
1.31618e-05	-0.008468901871596837
1.31620e-05	-0.008553769572530673
1.31623e-05	-0.008638637273465083
1.31625e-05	-0.008716745599744193
1.31628e-05	-0.008782076015707877
1.31630e-05	-0.008847406431672004
1.31633e-05	-0.00890280496831635
1.31635e-05	-0.008939428297240357
1.31638e-05	-0.008976051626164612
1.31640e-05	-0.009012674955088867
1.31643e-05	-0.009049298284012875
1.31645e-05	-0.00908592161293713
1.31648e-05	-0.009122544941861386
1.31650e-05	-0.009126671990556126
1.31653e-05	-0.0091248824184089
1.31655e-05	-0.009123092846261673
1.31658e-05	-0.00912130327411446
1.31660e-05	-0.009119513701967234
1.31663e-05	-0.009117724129820006
1.31665e-05	-0.009105576940577025
1.31668e-05	-0.009073849729648028
1.31670e-05	-0.009042122518719031
1.31673e-05	-0.00901039530779025
1.31675e-05	-0.008978668096861254
1.31678e-05	-0.008946940885932257
1.31680e-05	-0.008908917910490696
1.31683e-05	-0.008858993432556196
1.31685e-05	-0.00880906895462136
1.31688e-05	-0.008759144476686522
1.31690e-05	-0.008709219998752023
1.31693e-05	-0.008659295520817185
1.31695e-05	-0.008607283642646976
1.31698e-05	-0.0085513257466333
1.31700e-05	-0.008495367850619245
1.31703e-05	-0.008439315975947825
1.31705e-05	-0.008383086444183223
1.31708e-05	-0.008327443500346463
1.31710e-05	-0.008272909441328566
1.31713e-05	-0.008219813062441163
1.31715e-05	-0.008169434471618943
1.31718e-05	-0.008119055880796724
1.31720e-05	-0.008074435071901323
1.31723e-05	-0.008030862586454392
1.31725e-05	-0.007989250313212903
1.31728e-05	-0.007951343621781161
1.31730e-05	-0.007912634406317407
1.31733e-05	-0.007872408100792897
1.31735e-05	-0.007832181795268662
1.31738e-05	-0.007791055818631752
1.31740e-05	-0.007748229105258488
1.31743e-05	-0.007705402391885515
1.31745e-05	-0.007661834643373482
1.31748e-05	-0.007616866043299032
1.31750e-05	-0.007571897443224887
1.31753e-05	-0.007524259813480205
1.31755e-05	-0.007471576654599071
1.31758e-05	-0.007418893495718293
1.31760e-05	-0.007366210336837159
1.31763e-05	-0.007313527177956024
1.31765e-05	-0.007255398060100983
1.31768e-05	-0.007196277392623935
1.31770e-05	-0.007137156725146486
1.31773e-05	-0.007078036057669037
1.31775e-05	-0.007017015463952954
1.31778e-05	-0.006952403252914284
1.31780e-05	-0.006887791041875616
1.31783e-05	-0.006822768358913142
1.31785e-05	-0.006756969720524628
1.31788e-05	-0.006690973163083742
1.31790e-05	-0.006624602459804219
1.31793e-05	-0.006558056956221587
1.31795e-05	-0.006491228536794458
1.31798e-05	-0.0064246779721147396
1.31800e-05	-0.0063588105132927125
1.31803e-05	-0.006294030855302544
1.31805e-05	-0.006230702021755648
1.31808e-05	-0.006169019742296999
1.31810e-05	-0.006109019424842386
1.31813e-05	-0.006050822777295562
1.31815e-05	-0.005994755775986168
1.31818e-05	-0.00594122573109225
1.31820e-05	-0.005890640400795549
1.31823e-05	-0.005843406916509237
1.31825e-05	-0.005800005103890208
1.31828e-05	-0.005761174351936806
1.31830e-05	-0.00572782122786979
1.31833e-05	-0.005700541020307639
1.31835e-05	-0.005679474797761858
1.31838e-05	-0.005664601283261751
1.31840e-05	-0.005655898751833301
1.31843e-05	-0.005653345783057249
1.31845e-05	-0.005658103879299757
1.31848e-05	-0.005669096978139912
1.31850e-05	-0.005684730259760569
1.31853e-05	-0.0057091353349976405
1.31855e-05	-0.005740432903417768
1.31858e-05	-0.00578476002919888
1.31860e-05	-0.005829087154979692
1.31863e-05	-0.005873414280760805
1.31865e-05	-0.005917741406541916
1.31868e-05	-0.005982076850777294
1.31870e-05	-0.006050055223781625
1.31873e-05	-0.006118033596785955
1.31875e-05	-0.006186011969789826
1.31878e-05	-0.006259202757143686
1.31880e-05	-0.006342247083697428
1.31883e-05	-0.006425291410250607
1.31885e-05	-0.0065106194450285015
1.31888e-05	-0.006600264597940045
1.31890e-05	-0.006691128680887566
1.31893e-05	-0.00678429702709888
1.31895e-05	-0.006877970602571989
1.31898e-05	-0.006972599262579659
1.31900e-05	-0.007066953478057534
1.31903e-05	-0.007160788884062916
1.31905e-05	-0.007253601909680158
1.31908e-05	-0.007344482229156285
1.31910e-05	-0.0074336370199308095
1.31913e-05	-0.007519529874188646
1.31915e-05	-0.007602001126640234
1.31918e-05	-0.007678004188868595
1.31920e-05	-0.007754007251096442
1.31923e-05	-0.007824903298277659
1.31925e-05	-0.007886145052918793
1.31928e-05	-0.007947386807559515
1.31930e-05	-0.008006300093284837
1.31933e-05	-0.008060811645340515
1.31935e-05	-0.00811532319739619
1.31938e-05	-0.00816724401742938
1.31940e-05	-0.008214267322064005
1.31943e-05	-0.008261290626698628
1.31945e-05	-0.008308313931332934
1.31948e-05	-0.008355337235967557
1.31950e-05	-0.008397413743469112
1.31953e-05	-0.008438589584098304
1.31955e-05	-0.008479765424727777
1.31958e-05	-0.008520941265357249
1.31960e-05	-0.008560433232206134
1.31963e-05	-0.008596742006930736
1.31965e-05	-0.00863305078165534
1.31968e-05	-0.008669359556379696
1.31970e-05	-0.008705668331104298
