Time(s)	Current(A)
6.50000e-06	0.003917239749446089
6.50025e-06	0.0038808121379609647
6.50050e-06	0.003844384526475718
6.50075e-06	0.003807956914990594
6.50100e-06	0.0037715293035054708
6.50125e-06	0.0037351016920202235
6.50150e-06	0.0036986740805350997
6.50175e-06	0.003662246469049976
6.50200e-06	0.0036190886949045106
6.50225e-06	0.0035635802063814018
6.50250e-06	0.0035080717178582934
6.50275e-06	0.003452563229334997
6.50300e-06	0.003397054740811888
6.50325e-06	0.0033415462522885914
6.50350e-06	0.0032860377637654826
6.50375e-06	0.003229380485017567
6.50400e-06	0.0031706150284047468
6.50425e-06	0.003111849571792126
6.50450e-06	0.003053084115179505
6.50475e-06	0.002994318658566685
6.50500e-06	0.0029355532019540637
6.50525e-06	0.0028767877453414427
6.50550e-06	0.00282164892676818
6.50575e-06	0.0027731654555969787
6.50600e-06	0.0027246819844257775
6.50625e-06	0.0026761985132544115
6.50650e-06	0.0026277150420832103
6.50675e-06	0.002579231570912009
6.50700e-06	0.002530748099740643
6.50725e-06	0.00250367688607852
6.50750e-06	0.002480304020724795
6.50775e-06	0.00245693115537115
6.50800e-06	0.002433558290017504
6.50825e-06	0.00241018542466378
6.50850e-06	0.002386812559310134
6.50875e-06	0.002371873011405099
6.50900e-06	0.002372409686038723
6.50925e-06	0.002372946360672345
6.50950e-06	0.0023790224011886974
6.50975e-06	0.002395263890787901
6.51000e-06	0.002411505380387049
6.51025e-06	0.0024328894151932536
6.51050e-06	0.002463710682087897
6.51075e-06	0.0024945319489824364
6.51100e-06	0.0025299255777331696
6.51125e-06	0.002573710078764359
6.51150e-06	0.0026174945797954
6.51175e-06	0.002666889649876085
6.51200e-06	0.0027265808360107326
6.51225e-06	0.00278627202214538
6.51250e-06	0.0028459632082802294
6.51275e-06	0.0029056543944148768
6.51300e-06	0.002965345580549524
6.51325e-06	0.0030250367666843736
6.51350e-06	0.0030935177850180046
6.51375e-06	0.0031635169926888585
6.51400e-06	0.0032335162003599496
6.51425e-06	0.0033035154080308035
6.51450e-06	0.0033735146157016574
6.51475e-06	0.003443513823372748
6.51500e-06	0.003511073832706154
6.51525e-06	0.0035741575992666234
6.51550e-06	0.0036372413658273066
6.51575e-06	0.003700325132387776
6.51600e-06	0.0037634088989484593
6.51625e-06	0.0038264926655089283
6.51650e-06	0.0038895764320693977
6.51675e-06	0.003943286682800499
6.51700e-06	0.003979795326001918
6.51725e-06	0.004016303969203337
6.51750e-06	0.0040528126124048805
6.51775e-06	0.0040893212556063
6.51800e-06	0.0041258298988077185
6.51825e-06	0.004162338542009262
6.51850e-06	0.00418983927140076
6.51875e-06	0.004200809320007156
6.51900e-06	0.004211779368613589
6.51925e-06	0.004212421741752356
6.51950e-06	0.004194111501665965
6.51975e-06	0.004175801261579512
6.52000e-06	0.004157491021493122
6.52025e-06	0.004139180781406669
6.52050e-06	0.004120870541320277
6.52075e-06	0.004102560301233887
6.52100e-06	0.004084250061147434
6.52125e-06	0.004065939821061043
6.52150e-06	0.004019450571153656
6.52175e-06	0.003968094212152024
6.52200e-06	0.003916737853150567
6.52225e-06	0.0038653814941491085
6.52250e-06	0.0038140251351474765
6.52275e-06	0.0037626687761460184
6.52300e-06	0.0037113124171445607
6.52325e-06	0.0036599560581429286
6.52350e-06	0.0036041093037060064
6.52375e-06	0.0035400220959187108
6.52400e-06	0.0034759348881311988
6.52425e-06	0.003411847680343903
6.52450e-06	0.0033477604725563907
6.52475e-06	0.0032836732647690955
6.52500e-06	0.0032195860569818003
6.52525e-06	0.0031608191699413033
6.52550e-06	0.0031029712144622166
6.52575e-06	0.00304512325898313
6.52600e-06	0.002987275303503847
6.52625e-06	0.00292942734802476
6.52650e-06	0.0028715793925456735
6.52675e-06	0.0028209522237335185
6.52700e-06	0.0027835761274683348
6.52725e-06	0.0027462000312031515
6.52750e-06	0.002708823934937841
6.52775e-06	0.0026714478386726578
6.52800e-06	0.002634071742407474
6.52825e-06	0.0025966956461421636
6.52850e-06	0.0025593195498769803
6.52875e-06	0.00252194345361167
6.52900e-06	0.0024898439737053076
6.52925e-06	0.0024674277636963157
6.52950e-06	0.0024450115536872475
6.52975e-06	0.0024225953436782556
6.53000e-06	0.0024001791336692633
6.53025e-06	0.0023777629236601955
6.53050e-06	0.002355346713651203
6.53075e-06	0.0023329305036422113
6.53100e-06	0.002310514293633143
6.53125e-06	0.002291895903346384
6.53150e-06	0.0022802470008695215
6.53175e-06	0.002268598098392619
6.53200e-06	0.002256949195915756
6.53225e-06	0.0022453002934388934
6.53250e-06	0.0022336513909619908
6.53275e-06	0.002222002488485128
6.53300e-06	0.0022103535860082254
6.53325e-06	0.0021987046835313627
6.53350e-06	0.0021870557810544995
6.53375e-06	0.0021754068785775973
6.53400e-06	0.002163757976100734
6.53425e-06	0.0021521090736238715
6.53450e-06	0.0021404601711469693
6.53475e-06	0.002128811268670106
6.53500e-06	0.0021227790837862926
6.53525e-06	0.0021177170244475255
6.53550e-06	0.0021126549651087757
6.53575e-06	0.0021075929057700255
6.53600e-06	0.0021025308464312584
6.53625e-06	0.0020974687870925087
6.53650e-06	0.0020924067277537585
6.53675e-06	0.002087344668414992
6.53700e-06	0.0020822826090762417
6.53725e-06	0.0020772205497374746
6.53750e-06	0.002072158490398725
6.53775e-06	0.0020670964310599746
6.53800e-06	0.0020620343717212075
6.53825e-06	0.002056972312382458
6.53850e-06	0.0020534752776177312
6.53875e-06	0.0020528502642987207
6.53900e-06	0.0020522252509797122
6.53925e-06	0.002051600237660704
6.53950e-06	0.0020509752243416932
6.53975e-06	0.0020503502110226844
6.54000e-06	0.002049725197703676
6.54025e-06	0.0020491001843846654
6.54050e-06	0.002048475171065657
6.54075e-06	0.0020478501577466486
6.54100e-06	0.002047225144427638
6.54125e-06	0.0020466001311086296
6.54150e-06	0.002045975117789619
6.54175e-06	0.00204535010447061
6.54200e-06	0.0020447250911516017
6.54225e-06	0.002044100077832591
6.54250e-06	0.0020434750645135827
6.54275e-06	0.0020435908146841084
6.54300e-06	0.0020450659611627032
6.54325e-06	0.002046541107641293
6.54350e-06	0.002048016254119883
6.54375e-06	0.0020494914005984776
6.54400e-06	0.0020509665470770677
6.54425e-06	0.0020524416935556573
6.54450e-06	0.002053916840034252
6.54475e-06	0.002055391986512842
6.54500e-06	0.0020568671329914317
6.54525e-06	0.002058342279470027
6.54550e-06	0.0020598174259486165
6.54575e-06	0.0020612925724272113
6.54600e-06	0.0020627677189058013
6.54625e-06	0.002064242865384391
6.54650e-06	0.002065718011862986
6.54675e-06	0.0020671931583415757
6.54700e-06	0.002069283105377273
6.54725e-06	0.002072501290533868
6.54750e-06	0.0020757194756904516
6.54775e-06	0.0020822268706384935
6.54800e-06	0.0020947703887347446
6.54825e-06	0.002107313906830953
6.54850e-06	0.0021230182483382622
6.54875e-06	0.0021445231074679228
6.54900e-06	0.002166027966597511
6.54925e-06	0.0021911326265360857
6.54950e-06	0.0022228433840997047
6.54975e-06	0.002254554141663216
6.55000e-06	0.0022903891406063762
6.55025e-06	0.0023337926530941854
6.55050e-06	0.002377196165581994
6.55075e-06	0.00242592366534174
6.55100e-06	0.002484421366714159
6.55125e-06	0.0025429190680865783
6.55150e-06	0.0026014167694591956
6.55175e-06	0.002659914470831615
6.55200e-06	0.0027184121722040335
6.55225e-06	0.002776909873576651
6.55250e-06	0.002840247369979035
6.55275e-06	0.0029124665129354283
6.55300e-06	0.0029846856558920663
6.55325e-06	0.003056904798848459
6.55350e-06	0.003129123941804852
6.55375e-06	0.00320134308476149
6.55400e-06	0.003273562227717883
6.55425e-06	0.00334536346772695
6.55450e-06	0.0034163978020608295
6.55475e-06	0.0034874321363947093
6.55500e-06	0.0035584664707288293
6.55525e-06	0.003629500805062709
6.55550e-06	0.0037005351393965885
6.55575e-06	0.003771569473730709
6.55600e-06	0.003835801144441161
6.55625e-06	0.003887549052192534
6.55650e-06	0.003939296959944082
6.55675e-06	0.0039910448676954546
6.55700e-06	0.004042792775446828
6.55725e-06	0.004094540683198376
6.55750e-06	0.004146288590949749
6.55775e-06	0.004186306515966255
6.55800e-06	0.004204798413520945
6.55825e-06	0.004223290311075573
6.55850e-06	0.004241782208630264
6.55875e-06	0.004260274106184891
6.55900e-06	0.004278766003739519
6.55925e-06	0.004297257901294209
6.55950e-06	0.004315749798848837
6.55975e-06	0.004334241696403464
6.56000e-06	0.0043527335939581545
6.56025e-06	0.004371225491512782
6.56050e-06	0.004361464220269051
6.56075e-06	0.004346823031119556
6.56100e-06	0.004332181841970111
6.56125e-06	0.004317540652820665
6.56150e-06	0.00430289946367117
6.56175e-06	0.0042882582745217245
6.56200e-06	0.004273617085372279
6.56225e-06	0.004258975896222784
6.56250e-06	0.004244334707073338
6.56275e-06	0.004229693517923843
6.56300e-06	0.004209570355701245
6.56325e-06	0.004179387067596857
6.56350e-06	0.004149203779492366
6.56375e-06	0.004119020491387978
6.56400e-06	0.00408883720328359
6.56425e-06	0.004058653915179101
6.56450e-06	0.004028470627074713
6.56475e-06	0.003998287338970325
6.56500e-06	0.003968104050865834
6.56525e-06	0.003940223112187035
6.56550e-06	0.0039127398377938084
6.56575e-06	0.003885256563400488
6.56600e-06	0.0038577732890072605
6.56625e-06	0.003830290014614033
6.56650e-06	0.0038028067402207126
6.56675e-06	0.0037753234658274852
6.56700e-06	0.0037478401914341646
6.56725e-06	0.003720376951490497
6.56750e-06	0.0036929504773393356
6.56775e-06	0.003665524003188081
6.56800e-06	0.0036380975290369196
6.56825e-06	0.003610671054885758
6.56850e-06	0.003583244580734503
6.56875e-06	0.0035558181065833416
6.56900e-06	0.00352839163243218
6.56925e-06	0.0035009651582809257
6.56950e-06	0.003473538684129764
6.56975e-06	0.0034461122099786025
6.57000e-06	0.003405625512809236
6.57025e-06	0.0033628830397802877
6.57050e-06	0.0033201405667513395
6.57075e-06	0.0032773980937222465
6.57100e-06	0.0032346556206932983
6.57125e-06	0.0031919131476642053
6.57150e-06	0.003149170674635257
6.57175e-06	0.0031064282016063094
6.57200e-06	0.0030636857285772164
6.57225e-06	0.003020943255548268
6.57250e-06	0.002974998190320945
6.57275e-06	0.0029231759563756268
6.57300e-06	0.0028713537224304836
6.57325e-06	0.002819531488485341
6.57350e-06	0.002767709254540022
6.57375e-06	0.0027158870205948793
6.57400e-06	0.002664064786649736
6.57425e-06	0.0026122425527044177
6.57450e-06	0.0025633235914288635
6.57475e-06	0.0025149060865520224
6.57500e-06	0.0024664885816750174
6.57525e-06	0.0024180710767981763
6.57550e-06	0.002369653571921171
6.57575e-06	0.0023212360670443297
6.57600e-06	0.0022728185621674886
6.57625e-06	0.002227739207204971
6.57650e-06	0.0021887857868093186
6.57675e-06	0.002149832366413666
6.57700e-06	0.0021152272522009822
6.57725e-06	0.002088601839270765
6.57750e-06	0.002061976426340548
6.57775e-06	0.0020353510134102407
6.57800e-06	0.0020087256004800236
6.57825e-06	0.0019821001875498065
6.57850e-06	0.001955474774619499
6.57875e-06	0.0019288493616892823
6.57900e-06	0.0019022239487590652
6.57925e-06	0.0018799212057976373
6.57950e-06	0.0018655511183669283
6.57975e-06	0.0018511810309361706
6.58000e-06	0.0018368109435054616
6.58025e-06	0.0018224408560747528
6.58050e-06	0.0018080707686439952
6.58075e-06	0.0017937006812132862
6.58100e-06	0.0017793305937825773
6.58125e-06	0.0017649605063518195
6.58150e-06	0.0017535196753330781
6.58175e-06	0.0017474544066966797
6.58200e-06	0.0017413891380602606
6.58225e-06	0.0017353238694238619
6.58250e-06	0.0017292586007874634
6.58275e-06	0.0017231933321510441
6.58300e-06	0.0017171280635146456
6.58325e-06	0.001711062794878247
6.58350e-06	0.0017049975262418279
6.58375e-06	0.0016989322576054292
6.58400e-06	0.00169286698896901
6.58425e-06	0.0016868017203326116
6.58450e-06	0.0016842795148054716
6.58475e-06	0.0016823692709742144
6.58500e-06	0.0016804590271429637
6.58525e-06	0.001678548783311713
6.58550e-06	0.0016766385394804558
6.58575e-06	0.001674728295649205
6.58600e-06	0.0016728180518179544
6.58625e-06	0.0016709078079866972
6.58650e-06	0.0016689975641554465
6.58675e-06	0.0016670873203241958
6.58700e-06	0.0016651770764929388
6.58725e-06	0.0016661423400468694
6.58750e-06	0.0016723845296032296
6.58775e-06	0.001678626719159611
6.58800e-06	0.0016848689087159714
6.58825e-06	0.0016911110982723526
6.58850e-06	0.0016973532878287129
6.58875e-06	0.0017035954773850731
6.58900e-06	0.0017098376669414546
6.58925e-06	0.0017160798564978149
6.58950e-06	0.001722322046054175
6.58975e-06	0.0017285642356105564
6.59000e-06	0.0017348064251669166
6.59025e-06	0.001746108177576837
6.59050e-06	0.0017666948787645224
6.59075e-06	0.0017872815799521381
6.59100e-06	0.0018078682811397536
6.59125e-06	0.001828454982327439
6.59150e-06	0.0018490416835150545
6.59175e-06	0.0018696283847026702
6.59200e-06	0.0018902150858903556
6.59225e-06	0.001910801787077971
6.59250e-06	0.0019313884882656565
6.59275e-06	0.001951975189453272
6.59300e-06	0.0019725618906408877
6.59325e-06	0.001995107743357477
6.59350e-06	0.0020212488911852066
6.59375e-06	0.002047390039012936
6.59400e-06	0.0020735311868407542
6.59425e-06	0.002099672334668484
6.59450e-06	0.0021258134824962134
6.59475e-06	0.0021519546303240314
6.59500e-06	0.002178095778151761
6.59525e-06	0.0022025893954335744
6.59550e-06	0.0022240595821998842
6.59575e-06	0.0022455297689661213
6.59600e-06	0.0022669999557323583
6.59625e-06	0.002288470142498668
6.59650e-06	0.002309940329264905
6.59675e-06	0.0023314105160312146
6.59700e-06	0.0023528807027974516
6.59725e-06	0.0023688992452428536
6.59750e-06	0.0023749133189761144
6.59775e-06	0.0023809273927093547
6.59800e-06	0.002386941466442595
6.59825e-06	0.002392955540175856
6.59850e-06	0.0023989696139090962
6.59875e-06	0.0024049836876423366
6.59900e-06	0.0024109977613755973
6.59925e-06	0.0024170118351088377
6.59950e-06	0.002423025908842078
6.59975e-06	0.002429039982575339
6.60000e-06	0.002435054056308579
6.60025e-06	0.0024348570077378268
6.60050e-06	0.00242326175064552
6.60075e-06	0.0024116664935532528
6.60100e-06	0.0024000712364609855
6.60125e-06	0.002388475979368679
6.60150e-06	0.002376880722276412
6.60175e-06	0.002365285465184105
6.60200e-06	0.002353690208091838
6.60225e-06	0.0023420949509995706
6.60250e-06	0.0023304996939072643
6.60275e-06	0.002318904436814997
6.60300e-06	0.0023073091797227298
6.60325e-06	0.0022931886315260964
6.60350e-06	0.0022744338492613693
6.60375e-06	0.002255679066996642
6.60400e-06	0.0022369242847318513
6.60425e-06	0.002218169502467124
6.60450e-06	0.0021994147202023966
6.60475e-06	0.0021806599379376058
6.60500e-06	0.0021619051556728787
6.60525e-06	0.0021431503734081515
6.60550e-06	0.0021272168509362498
6.60575e-06	0.002111770619509691
6.60600e-06	0.00209632438808308
6.60625e-06	0.002080878156656522
6.60650e-06	0.0020654319252299633
6.60675e-06	0.0020499856938033523
6.60700e-06	0.002034539462376794
6.60725e-06	0.0020190932309502355
6.60750e-06	0.0020087144040915428
6.60775e-06	0.0020076349165618745
6.60800e-06	0.0020065554290322066
6.60825e-06	0.0020054759415025353
6.60850e-06	0.002004396453972867
6.60875e-06	0.002003316966443199
6.60900e-06	0.002002237478913528
6.60925e-06	0.0020011579913838595
6.60950e-06	0.0020000785038541916
6.60975e-06	0.0019989990163245203
6.61000e-06	0.001997919528794852
6.61025e-06	0.0020029601520850054
6.61050e-06	0.0020192319661116215
6.61075e-06	0.002035503780138237
6.61100e-06	0.0020517755941649083
6.61125e-06	0.002068047408191524
6.61150e-06	0.0020843192222181396
6.61175e-06	0.0021005910362448107
6.61200e-06	0.0021168628502714264
6.61225e-06	0.0021331346642980424
6.61250e-06	0.0021494064783247136
6.61275e-06	0.0021656782923513292
6.61300e-06	0.0021846848231939
6.61325e-06	0.002208709911228251
6.61350e-06	0.00223273499926252
6.61375e-06	0.0022567600872967896
6.61400e-06	0.0022807851753311407
6.61425e-06	0.00230481026336541
6.61450e-06	0.002328835351399761
6.61475e-06	0.0023522421785791125
6.61500e-06	0.002375324558888175
6.61525e-06	0.002398406939197316
6.61550e-06	0.0024214893195063786
6.61575e-06	0.0024445716998154413
6.61600e-06	0.0024676540801245824
6.61625e-06	0.002490736460433645
6.61650e-06	0.0012321466158147054
6.61675e-06	-0.005549794233665957
6.61700e-06	-0.010269763996700054
6.61725e-06	-0.008869633355067975
6.61750e-06	-0.00653047705152212
6.61775e-06	-0.001606668292629098
6.61800e-06	0.0031470817432837973
6.61825e-06	0.0032239765477607737
6.61850e-06	0.0018490453491170045
6.61875e-06	-0.0013517441605206256
6.61900e-06	-0.005142559460128585
6.61925e-06	-0.004785777321613635
6.61950e-06	-0.002668195428297844
6.61975e-06	-0.00010040251359422474
6.62000e-06	0.002870716348081683
6.62025e-06	0.0041656984335223185
6.62050e-06	0.0025911235939144023
6.62075e-06	0.0015312904189234392
6.62100e-06	-0.0006005592052201055
6.62125e-06	-0.001310055938066676
6.62150e-06	-0.00025948517276306796
6.62175e-06	0.0010514525282749815
6.62200e-06	0.002748112049325891
6.62225e-06	0.0034988944783195097
6.62250e-06	0.0030566906898775283
6.62275e-06	0.0022179490948323255
6.62300e-06	0.0008676441384052971
6.62325e-06	0.00040915559131228117
6.62350e-06	0.0010538974658696144
6.62375e-06	0.001862371451611666
6.62400e-06	0.00291305948914896
6.62425e-06	0.0033718504938207517
6.62450e-06	0.0030840085737666263
6.62475e-06	0.0025484704614735323
6.62500e-06	0.00169321162764747
6.62525e-06	0.0013973025809823605
6.62550e-06	0.001793125201363394
6.62575e-06	0.002292155779686479
6.62600e-06	0.002943559644059186
6.62625e-06	0.0032248793151677213
6.62650e-06	0.003039247286706863
6.62675e-06	0.0026992480795913977
6.62700e-06	0.002159804173653468
6.62725e-06	0.0019713689141436863
6.62750e-06	0.002216293910060012
6.62775e-06	0.0025254381662663614
6.62800e-06	0.002929475594141826
6.62825e-06	0.0031011716313282564
6.62850e-06	0.002979899667499975
6.62875e-06	0.0027615074823993083
6.62900e-06	0.002417797114317932
6.62925e-06	0.002293596371222405
6.62950e-06	0.0024404968508439733
6.62975e-06	0.0026272853237730275
6.63000e-06	0.0028732006507468863
6.63025e-06	0.002973298579514733
6.63050e-06	0.002889648052767208
6.63075e-06	0.0027449704602002046
6.63100e-06	0.0025216403958536714
6.63125e-06	0.0024356860706312975
6.63150e-06	0.002519442038930479
6.63175e-06	0.0026280996335291285
6.63200e-06	0.00277373935267304
6.63225e-06	0.0028280186423952133
6.63250e-06	0.002767219204254848
6.63275e-06	0.0026682532170279566
6.63300e-06	0.002520116192122888
6.63325e-06	0.002458158563552052
6.63350e-06	0.0025026588400435842
6.63375e-06	0.002562935752518504
6.63400e-06	0.0026465872553416855
6.63425e-06	0.0026732543313195112
6.63450e-06	0.0026281182813586474
6.63475e-06	0.0025593937144223066
6.63500e-06	0.0024602229787978607
6.63525e-06	0.002415421097606032
6.63550e-06	0.002437717531511704
6.63575e-06	0.002470339251150756
6.63600e-06	0.0025180775870606055
6.63625e-06	0.0025306288587625537
6.63650e-06	0.0024987478213335
6.63675e-06	0.0024526715598213577
6.63700e-06	0.0023881380348466847
6.63725e-06	0.0023582572727484986
6.63750e-06	0.002370890342777815
6.63775e-06	0.0023903577908751337
6.63800e-06	0.0024196123306986987
6.63825e-06	0.0024271273261166544
6.63850e-06	0.002407096358650477
6.63875e-06	0.0023784437774932877
6.63900e-06	0.002338483558267993
6.63925e-06	0.0023204660529549306
6.63950e-06	0.0023292954248731934
6.63975e-06	0.0023426033631701224
6.64000e-06	0.0023622214985733058
6.64025e-06	0.002368384771474152
6.64050e-06	0.0023574397510754525
6.64075e-06	0.002341224059296332
6.64100e-06	0.00231803890062613
6.64125e-06	0.002308694112965717
6.64150e-06	0.002316243035642337
6.64175e-06	0.002326655821910939
6.64200e-06	0.0023410617969019036
6.64225e-06	0.002347063393910843
6.64250e-06	0.0023423551949895123
6.64275e-06	0.0023343430887325994
6.64300e-06	0.00232622800947866
6.64325e-06	0.002318137537954431
6.64350e-06	0.002324869811890582
6.64375e-06	0.0023331300222457327
6.64400e-06	0.0023413902326008557
6.64425e-06	0.0023496326404521214
6.64450e-06	0.002347153343343173
6.64475e-06	0.002344667345087571
6.64500e-06	0.002338161713531318
6.64525e-06	0.0023414051996178452
6.64550e-06	0.0023446486857043726
6.64575e-06	0.0023478957613026668
6.64600e-06	0.00235330464998539
6.64625e-06	0.0023587015813909154
6.64650e-06	0.002356897143902592
6.64675e-06	0.002355093913810708
6.64700e-06	0.002354017848185954
6.64725e-06	0.002352941782561197
6.64750e-06	0.0023518762668924735
6.64775e-06	0.002357164549301784
6.64800e-06	0.002362452831711112
6.64825e-06	0.0023677411141204223
6.64850e-06	0.0023730293965297505
6.64875e-06	0.0023783260373387255
