Time(s)	Current(A)
5.75000e-06	-6.412828300654963e-05
5.75025e-06	-8.071631261793951e-05
5.75050e-06	-9.843045533963899e-05
5.75075e-06	-0.00011748941992636225
5.75100e-06	-0.00013841343730430856
5.75125e-06	-0.00016153357322782
5.75150e-06	-0.00018678382676972103
5.75175e-06	-0.00021395303598815453
5.75200e-06	-0.00024283008169707118
5.75225e-06	-0.0002732040649030396
5.75250e-06	-0.00030511036128094633
5.75275e-06	-0.00033852803424755325
5.75300e-06	-0.0003728089664903521
5.75325e-06	-0.00040947851229729645
5.75350e-06	-0.0004469816171334482
5.75375e-06	-0.0004867911558059508
5.75400e-06	-0.0005266006944783185
5.75425e-06	-0.0005669463081203648
5.75450e-06	-0.0006087752257703915
5.75475e-06	-0.0006506041434202766
5.75500e-06	-0.0006927559587031828
5.75525e-06	-0.0007358012224407687
5.75550e-06	-0.0007788464861782088
5.75575e-06	-0.0008217231158672163
5.75600e-06	-0.0008641331399985541
5.75625e-06	-0.0009065431641298919
5.75650e-06	-0.0009482500244542834
5.75675e-06	-0.000988011250768093
5.75700e-06	-0.0010277724770819026
5.75725e-06	-0.0010666618076767894
5.75750e-06	-0.0011031386279184493
5.75775e-06	-0.0011385987146448956
5.75800e-06	-0.001171245529006221
5.75825e-06	-0.0012025597068751838
5.75850e-06	-0.0012301865179362383
5.75875e-06	-0.0012559160259775503
5.75900e-06	-0.0012763957511856838
5.75925e-06	-0.0012946243818184118
5.75950e-06	-0.0013066242985693903
5.75975e-06	-0.0013163728580589903
5.76000e-06	-0.0013198919768225086
5.76025e-06	-0.0013211648220694855
5.76050e-06	-0.0013162222931660012
5.76075e-06	-0.0013088827708458216
5.76100e-06	-0.0012949108367507965
5.76125e-06	-0.0012785233048962852
5.76150e-06	-0.0012554518835859014
5.76175e-06	-0.0012301677198419765
5.76200e-06	-0.0011987609614888624
5.76225e-06	-0.0011653476227798556
5.76250e-06	-0.0011263821339958405
5.76275e-06	-0.0010855186468468297
5.76300e-06	-0.001039403452864996
5.76325e-06	-0.0009919679840805216
5.76350e-06	-0.0009401065619037208
5.76375e-06	-0.0008854185348852477
5.76400e-06	-0.0008282220934034678
5.76425e-06	-0.0007688353114206604
5.76450e-06	-0.0007075648046343943
5.76475e-06	-0.0006446694495837065
5.76500e-06	-0.0005803742267351885
5.76525e-06	-0.0005149607673867664
5.76550e-06	-0.0004487921263460258
5.76575e-06	-0.0003822586150829963
5.76600e-06	-0.0003157505141641615
5.76625e-06	-0.00024965799160303354
5.76650e-06	-0.00018436400944124755
5.76675e-06	-0.00012022160543590386
5.76700e-06	-5.756256043879513e-05
5.76725e-06	3.2459052244750737e-06
5.76750e-06	6.178553864962365e-05
5.76775e-06	0.00011762108374510324
5.76800e-06	0.00017031734114557375
5.76825e-06	0.00021943969416444317
5.76850e-06	0.000264662575822929
5.76875e-06	0.00030615542425796417
5.76900e-06	0.0003446315653799339
5.76925e-06	0.00038063026118579393
5.76950e-06	0.00041414913542758554
5.76975e-06	0.00044497549731245496
5.77000e-06	0.00047289669467779136
5.77025e-06	0.0004977004990178794
5.77050e-06	0.0005192429681545045
5.77075e-06	0.0005376902592571525
5.77100e-06	0.0005535491844725246
5.77125e-06	0.0005669273790881406
5.77150e-06	0.0005779508332234618
5.77175e-06	0.0005877747708107868
5.77200e-06	0.00059427968064468
5.77225e-06	0.0005995288668733319
5.77250e-06	0.0006013035020392617
5.77275e-06	0.0006020476899403254
5.77300e-06	0.0005999406599267493
5.77325e-06	0.0005970549130044006
5.77350e-06	0.0005920144788152426
5.77375e-06	0.0005860409894476113
5.77400e-06	0.0005774857632644254
5.77425e-06	0.0005689305370812104
5.77450e-06	0.0005594388305013686
5.77475e-06	0.0005473559096259683
5.77500e-06	0.000535272988750527
5.77525e-06	0.0005227234115182698
5.77550e-06	0.000508882609582006
5.77575e-06	0.0004950418076456952
5.77600e-06	0.0004809425691367238
5.77625e-06	0.0004661282440716822
5.77650e-06	0.00045131391900659045
5.77675e-06	0.00043659171170706254
5.77700e-06	0.00042212439161250757
5.77725e-06	0.0004076570715180016
5.77750e-06	0.0003936703172564963
5.77775e-06	0.00038101327481890996
5.77800e-06	0.0003683562323813665
5.77825e-06	0.0003563138878347954
5.77850e-06	0.0003459723946547387
5.77875e-06	0.00033563090147471704
5.77900e-06	0.00032529009205065014
5.77925e-06	0.0003149511745595889
5.77950e-06	0.0003046122570685627
5.77975e-06	0.00029427333957753645
5.78000e-06	0.0002839070737797992
5.78025e-06	0.00027346513600491374
5.78050e-06	0.0002630231982300283
5.78075e-06	0.0002525812604551075
5.78100e-06	0.00024188348399381662
5.78125e-06	0.00023047780925310586
5.78150e-06	0.00021907213451243375
5.78175e-06	0.00020745663943779328
5.78200e-06	0.00019526057754001012
5.78225e-06	0.0001860189105395847
5.78250e-06	0.0001745855505515482
5.78275e-06	-0.010309712931528426
5.78300e-06	-0.015953599312636055
5.78325e-06	-0.01350291164722811
5.78350e-06	-0.01090756461542661
5.78375e-06	-0.0034545841135112795
5.78400e-06	0.002582223752562748
5.78425e-06	0.001953546119265462
5.78450e-06	0.0010056418272020207
5.78475e-06	-0.004181337900119915
5.78500e-06	-0.009658506176517477
5.78525e-06	-0.007674407559439499
5.78550e-06	-0.005588469999350539
5.78575e-06	-0.0017133160797649016
5.78600e-06	0.0021046045031695533
5.78625e-06	0.003046449700419643
5.78650e-06	0.001922223625823048
5.78675e-06	-0.0008158173399801867
5.78700e-06	-0.003798315519404803
5.78725e-06	-0.004226855988851272
5.78750e-06	-0.0028749987961987147
5.78775e-06	-0.0005523645869000963
5.78800e-06	0.0017932748004727325
5.78825e-06	0.0023524474419745972
5.78850e-06	0.001621869424795351
5.78875e-06	-0.0001154962707299327
5.78900e-06	-0.002002071451671328
5.78925e-06	-0.002285283303797555
5.78950e-06	-0.0014501906800557425
5.78975e-06	-4.379087549140782e-06
5.79000e-06	0.0014581227976751654
5.79025e-06	0.0018036380504824227
5.79050e-06	0.0013431536953667264
5.79075e-06	0.00025376778127773024
5.79100e-06	-0.0009274920267252891
5.79125e-06	-0.0011030293076691841
5.79150e-06	-0.0005769168029558981
5.79175e-06	0.0003327046815168617
5.79200e-06	0.0012535899486655414
5.79225e-06	0.001475518147237731
5.79250e-06	0.0011932362235027101
5.79275e-06	0.0005176161442403993
5.79300e-06	-0.0002150250693984878
5.79325e-06	-0.000317272826024968
5.79350e-06	2.0265551495396764e-05
5.79375e-06	0.0005981916923921026
5.79400e-06	0.0011832390789839392
5.79425e-06	0.001330467342545468
5.79450e-06	0.0011618232025345414
5.79475e-06	0.0007467078302459496
5.79500e-06	0.0002957290319508134
5.79525e-06	0.00023939398479592226
5.79550e-06	0.000458204768217056
5.79575e-06	0.0008271688817332937
5.79600e-06	0.0012000919018029538
5.79625e-06	0.0012982075589931022
5.79650e-06	0.0011978563934214367
5.79675e-06	0.0009424593905885893
5.79700e-06	0.0006638817766792179
5.79725e-06	0.0006317152769500156
5.79750e-06	0.0007710207041063235
5.79775e-06	0.0010034241528967991
5.79800e-06	0.0012372788078432785
5.79825e-06	0.0012979074340101072
5.79850e-06	0.001233093778029513
5.79875e-06	0.0010701504557990764
5.79900e-06	0.0008919677529104677
5.79925e-06	0.0008676305366062848
5.79950e-06	0.0009502554423879933
5.79975e-06	0.0010907711677563916
5.80000e-06	0.0012317942893680912
5.80025e-06	0.0012639388645910457
5.80050e-06	0.001217172019222235
5.80075e-06	0.0011086356915680378
5.80100e-06	0.0009902822198905635
5.80125e-06	0.0009680491968691005
5.80150e-06	0.0010125883451630921
5.80175e-06	0.0010931838246359446
5.80200e-06	0.00117391602149033
5.80225e-06	0.0011862957348614672
5.80250e-06	0.0011491266507690139
5.80275e-06	0.0010731777184205002
5.80300e-06	0.0009910209095361153
5.80325e-06	0.0009690397615602893
5.80350e-06	0.0009888730924154019
5.80375e-06	0.0010313045002693629
5.80400e-06	0.001073860146322285
5.80425e-06	0.0010736675224757668
5.80450e-06	0.001042535631753757
5.80475e-06	0.0009872397341810382
5.80500e-06	0.0009282113575689492
5.80525e-06	0.0009070585186794768
5.80550e-06	0.0009123039718059183
5.80575e-06	0.0009319359236822342
5.80600e-06	0.0009519032902603209
5.80625e-06	0.0009453790661247462
5.80650e-06	0.0009197896513531313
5.80675e-06	0.0008794077343255757
5.80700e-06	0.0008370595174353643
5.80725e-06	0.0008188344801015405
5.80750e-06	0.0008175685528499932
5.80775e-06	0.0008257634933581517
5.80800e-06	0.0008346443987051077
5.80825e-06	0.0008274349167147703
5.80850e-06	0.0008087756800983224
5.80875e-06	0.0007809856734985799
5.80900e-06	0.0007513851248473337
5.80925e-06	0.0007358593669862522
5.80950e-06	0.0007298700387207728
5.80975e-06	0.000728775492316813
5.81000e-06	0.0007271419792467444
5.81025e-06	0.0007145242404583218
5.81050e-06	0.0006938932191410194
5.81075e-06	0.0006667651304290917
5.81100e-06	0.0006377887338970775
5.81125e-06	0.0006169774753152665
5.81150e-06	0.0006015508751450791
5.81175e-06	0.0005886641151976503
5.81200e-06	0.0005749765370313217
5.81225e-06	0.0005540086666210006
5.81250e-06	0.000527685148376129
5.81275e-06	0.0004970193331832815
5.81300e-06	0.00046498650507541457
5.81325e-06	0.00043792200519687276
5.81350e-06	0.0004141469174860064
5.81375e-06	0.0003919421170751294
5.81400e-06	0.0003692780759234824
5.81425e-06	0.0003421595011884271
5.81450e-06	0.0003118553713365534
5.81475e-06	0.0002790638818492754
5.81500e-06	0.0002457120802255321
5.81525e-06	0.00021583140906746397
5.81550e-06	0.00018843307555096447
5.81575e-06	0.00016250324166155891
5.81600e-06	0.00013683369712157812
5.81625e-06	0.00010898503553323968
5.81650e-06	7.981553788519197e-05
5.81675e-06	4.982582426079427e-05
5.81700e-06	2.0286203429230863e-05
5.81725e-06	-6.214982685264296e-06
5.81750e-06	-3.0234151724667764e-05
5.81775e-06	-5.23433515360202e-05
5.81800e-06	-7.323632821225483e-05
5.81825e-06	-9.437793157467467e-05
5.81850e-06	-0.00011522705272524076
5.81875e-06	-0.00013599133713461796
5.81900e-06	-0.00015694628142304178
5.81925e-06	-0.0001770683110039565
5.81950e-06	-0.00019709571175515687
5.81975e-06	-0.0002172363269898344
5.82000e-06	-0.00023738947811641285
5.82025e-06	-0.0002592367720063513
5.82050e-06	-0.0002812716531189827
5.82075e-06	-0.0003050802671109203
5.82100e-06	-0.0003290852810946983
5.82125e-06	-0.000353090295078395
5.82150e-06	-0.0003780175587125838
5.82175e-06	-0.0004039764872657379
5.82200e-06	-0.0004300383417073881
5.82225e-06	-0.0004583908586435918
5.82250e-06	-0.00048699701359961224
5.82275e-06	-0.0005156031685555359
5.82300e-06	-0.0005468459891075199
5.82325e-06	-0.0005783807595396185
5.82350e-06	-0.0006099155299716102
5.82375e-06	-0.0006414503004037088
5.82400e-06	-0.0006729850708357006
5.82425e-06	-0.0007045198412676922
5.82450e-06	-0.0007366375571414168
5.82475e-06	-0.0007696285578791338
5.82500e-06	-0.0008026195586168508
5.82525e-06	-0.0008356105593546794
5.82550e-06	-0.0008686015600923964
5.82575e-06	-0.0009015925608301134
5.82600e-06	-0.000934583561567942
5.82625e-06	-0.0009653101423550666
5.82650e-06	-0.0009957859908787878
5.82675e-06	-0.0010262618394026122
5.82700e-06	-0.0010567376879263334
5.82725e-06	-0.0010872135364500546
5.82750e-06	-0.001115020946068485
5.82775e-06	-0.001138830885014046
5.82800e-06	-0.0011626408239596875
5.82825e-06	-0.0011864507629052484
5.82850e-06	-0.0012102607018508091
5.82875e-06	-0.0012340706407964507
5.82900e-06	-0.0012480784853625688
5.82925e-06	-0.0012610009741364293
5.82950e-06	-0.0012739234629103335
5.82975e-06	-0.001286845951684194
5.83000e-06	-0.0012997684404580543
5.83025e-06	-0.0013126909292319586
5.83050e-06	-0.001325613418005819
5.83075e-06	-0.0013385359067796794
5.83100e-06	-0.0013514583955535836
5.83125e-06	-0.001364380884327444
5.83150e-06	-0.001372802081404671
5.83175e-06	-0.0013744800918534903
5.83200e-06	-0.001376158102302304
5.83225e-06	-0.0013778361127511234
5.83250e-06	-0.001379514123199937
5.83275e-06	-0.0013811921336487508
5.83300e-06	-0.0013828701440975703
5.83325e-06	-0.001384548154546384
5.83350e-06	-0.0013862261649951976
5.83375e-06	-0.001387904175444017
5.83400e-06	-0.0013895821858928307
5.83425e-06	-0.0013861188311883738
5.83450e-06	-0.0013820861889182329
5.83475e-06	-0.0013780535466481059
5.83500e-06	-0.0013740209043779789
5.83525e-06	-0.0013699882621078382
5.83550e-06	-0.0013659556198377112
5.83575e-06	-0.0013619229775675842
5.83600e-06	-0.0013574404795283139
5.83625e-06	-0.0013522840723955679
5.83650e-06	-0.0013471276652628045
5.83675e-06	-0.0013419712581300585
5.83700e-06	-0.0013368148509973127
5.83725e-06	-0.0013316584438645492
5.83750e-06	-0.0013265020367318032
5.83775e-06	-0.0013213456295990574
5.83800e-06	-0.001317043602382378
5.83825e-06	-0.00131283617802857
5.83850e-06	-0.0013090314862124594
5.83875e-06	-0.0013052713877327587
5.83900e-06	-0.0012995877107847835
5.83925e-06	-0.0012936910419036056
5.83950e-06	-0.001284130004776971
5.83975e-06	-0.0012741632234140798
5.84000e-06	-0.0012641964420511886
5.84025e-06	-0.0012506229030222684
5.84050e-06	-0.0012366499987995613
5.84075e-06	-0.0012226770945768545
5.84100e-06	-0.0012038271001959253
5.84125e-06	-0.0011844370806077529
5.84150e-06	-0.0011650470610195147
5.84175e-06	-0.0011406428248181073
5.84200e-06	-0.0011156833798184125
5.84225e-06	-0.0010907239348186331
5.84250e-06	-0.001061890711134842
5.84275e-06	-0.0010326285558404237
5.84300e-06	-0.0010033664005459062
5.84325e-06	-0.000970035974089613
5.84350e-06	-0.0009362550804682677
5.84375e-06	-0.0009024741868468079
5.84400e-06	-0.0008662662248445503
5.84425e-06	-0.0008297895210182121
5.84450e-06	-0.0007922187052955455
5.84475e-06	-0.0007545267419246561
5.84500e-06	-0.0007159220666158293
5.84525e-06	-0.0006772163295185093
5.84550e-06	-0.0006380855353473597
5.84575e-06	-0.000598907675912369
5.84600e-06	-0.0005601687346778528
5.84625e-06	-0.0005214783935069756
5.84650e-06	-0.00048404699110456606
5.84675e-06	-0.0004467549871237283
5.84700e-06	-0.00041120831905512096
5.84725e-06	-0.00037585490666897125
5.84750e-06	-0.0003429249117812107
5.84775e-06	-0.0003102632544664631
5.84800e-06	-0.0002799892220248656
5.84825e-06	-0.00025187864307302054
5.84850e-06	-0.00022609519147963848
5.84875e-06	-0.0002027711833951513
5.84900e-06	-0.0001818808420204924
5.84925e-06	-0.00016339192366360053
5.84950e-06	-0.0001473474243190113
5.84975e-06	-0.00013381385444081187
5.85000e-06	-0.00012285946470996738
5.85025e-06	-0.00011455289082129424
5.85050e-06	-0.0001089547008626479
5.85075e-06	-0.00010605593404507879
5.85100e-06	-0.00010574861629162218
5.85125e-06	-0.00010792070431341833
5.85150e-06	-0.00011250732137654769
5.85175e-06	-0.00011945829650948075
5.85200e-06	-0.00012872454320083737
5.85225e-06	-0.00014025725296691905
5.85250e-06	-0.00015400252519762433
5.85275e-06	-0.00016986291996225734
5.85300e-06	-0.00018767898668170491
5.85325e-06	-0.00020728874785047133
5.85350e-06	-0.00022855973288888693
5.85375e-06	-0.000251368757566419
5.85400e-06	-0.00027616989548250444
5.85425e-06	-0.00030117477156162695
5.85450e-06	-0.0003282460166728307
5.85475e-06	-0.00035554606447743217
5.85500e-06	-0.0003845175221870752
5.85525e-06	-0.00041367404997948924
5.85550e-06	-0.00044283057777190325
5.85575e-06	-0.0004727165484319398
5.85600e-06	-0.000502683288059162
5.85625e-06	-0.0005326500276863843
5.85650e-06	-0.0005619440616087306
5.85675e-06	-0.0005911636088953603
5.85700e-06	-0.0006203831561819899
5.85725e-06	-0.0006473135126812296
5.85750e-06	-0.0006739903941187298
5.85775e-06	-0.0007006672755562302
5.85800e-06	-0.0007234324545471207
5.85825e-06	-0.0007457645027459498
5.85850e-06	-0.0007680965509448545
5.85875e-06	-0.000785920186997425
5.85900e-06	-0.0008032446204265917
5.85925e-06	-0.0008162665235438436
5.85950e-06	-0.0008288120207005233
5.85975e-06	-0.0008369211189352537
5.86000e-06	-0.0008445389883496686
5.86025e-06	-0.0008476397813220062
5.86050e-06	-0.0008502404123001285
5.86075e-06	-0.0008482048764403515
5.86100e-06	-0.0008456559920727812
5.86125e-06	-0.0008384827581981109
5.86150e-06	-0.000830797484312358
5.86175e-06	-0.0008187695116708637
5.86200e-06	-0.0008062606853405595
5.86225e-06	-0.0007897242192026334
5.86250e-06	-0.0007727417848851638
5.86275e-06	-0.0007520226109964834
5.86300e-06	-0.000730889679417579
5.86325e-06	-0.0007056639685978431
5.86350e-06	-0.0006799850769091709
5.86375e-06	-0.0006543061852205856
5.86400e-06	-0.0006253345816501466
5.86425e-06	-0.0005959983862109469
5.86450e-06	-0.0005646795518517638
5.86475e-06	-0.0005331411859773244
5.86500e-06	-0.0005001736567451474
5.86525e-06	-0.00046704788064610633
5.86550e-06	-0.0004331560218400808
5.86575e-06	-0.0003991793370498611
5.86600e-06	-0.0003651533522422035
5.86625e-06	-0.00033112190859509454
5.86650e-06	-0.00029775551078657176
5.86675e-06	-0.00026446275146028514
5.86700e-06	-0.00023254660636306946
5.86725e-06	-0.0002007828895294035
5.86750e-06	-0.00017053514496018966
5.86775e-06	-0.0001417368763801672
5.86800e-06	-0.00011456578024256528
5.86825e-06	-8.924794670756245e-05
5.86850e-06	-6.59830422026733e-05
5.86875e-06	-4.4728435616176265e-05
5.86900e-06	-2.5158771218402422e-05
5.86925e-06	-7.061272710499367e-06
5.86950e-06	9.53595693703826e-06
5.86975e-06	2.453887052702658e-05
5.87000e-06	3.784890485359696e-05
5.87025e-06	4.9367527270895555e-05
5.87050e-06	5.9012778299861534e-05
5.87075e-06	6.685448531280215e-05
5.87100e-06	7.313954684040284e-05
5.87125e-06	7.804433357980821e-05
5.87150e-06	8.159432261591848e-05
5.87175e-06	8.3773680587547e-05
5.87200e-06	8.456376286463452e-05
5.87225e-06	8.394592189313751e-05
5.87250e-06	8.19119248903642e-05
5.87275e-06	7.85485824839596e-05
5.87300e-06	7.405365358957506e-05
5.87325e-06	6.858067160292983e-05
5.87350e-06	6.21886525414327e-05
5.87375e-06	5.4910740470150556e-05
5.87400e-06	4.6778298404360485e-05
5.87425e-06	3.7822715561835145e-05
5.87450e-06	2.8081877370609024e-05
5.87475e-06	1.7653221060021615e-05
5.87500e-06	6.703650579175794e-06
5.87525e-06	-4.6276271581183085e-06
5.87550e-06	-1.6260626144589685e-05
5.87575e-06	-2.8131569183619987e-05
5.87600e-06	-4.0246063977749185e-05
5.87625e-06	-5.238496898144896e-05
5.87650e-06	-6.449268651509701e-05
5.87675e-06	-7.655368347502242e-05
5.87700e-06	-8.861468043498871e-05
5.87725e-06	-0.00010003677641798931
5.87750e-06	-0.00011138812885911393
5.87775e-06	-0.000121803075744918
5.87800e-06	-0.0001321143373210527
5.87825e-06	-0.00014153827063807217
5.87850e-06	-0.0001499095526964172
5.87875e-06	-0.0001581751569614514
5.87900e-06	-0.0001657842181013727
5.87925e-06	-0.00017332058223859328
5.87950e-06	-0.00018036716037445673
5.87975e-06	-0.0001873595060115014
5.88000e-06	-0.00019435185164852234
5.88025e-06	-0.0002004186330175849
5.88050e-06	-0.00020638292949948762
5.88075e-06	-0.00021234722598137016
5.88100e-06	-0.00021779407534833737
5.88125e-06	-0.00022318362938637858
5.88150e-06	-0.00022857318342440154
5.88175e-06	-0.00023304533721642097
5.88200e-06	-0.0002374159100983463
5.88225e-06	-0.00024178648298025685
5.88250e-06	-0.00024615705586216737
5.88275e-06	-0.0002505276287440927
5.88300e-06	-0.00025489820162600326
5.88325e-06	-0.0002592687745079138
5.88350e-06	-0.00026363934738983915
5.88375e-06	-0.0002680099202717497
5.88400e-06	-0.00027238049315367503
5.88425e-06	-0.0002767510660355856
5.88450e-06	-0.0002811216389174961
5.88475e-06	-0.00028549221179942146
5.88500e-06	-0.0002892989050847605
5.88525e-06	-0.0002922608752088786
5.88550e-06	-0.00029522284533300676
5.88575e-06	-0.0002981848154571249
5.88600e-06	-0.00030114678558124303
5.88625e-06	-0.0003041087557053712
5.88650e-06	-0.0003070707258294893
5.88675e-06	-0.0003100326959536074
5.88700e-06	-0.0003129946660777356
5.88725e-06	-0.0003159566362018537
5.88750e-06	-0.00031891860632597186
5.88775e-06	-0.00032188057645010003
5.88800e-06	-0.0003248425465742181
5.88825e-06	-0.0003278045166983463
5.88850e-06	-0.0003284242835099323
5.88875e-06	-0.0003287847053463085
5.88900e-06	-0.0003291451271826859
5.88925e-06	-0.0003295055490190621
5.88950e-06	-0.0003298659708554383
5.88975e-06	-0.0003302263926918157
5.89000e-06	-0.00033058681452819187
5.89025e-06	-0.00033094723636456806
5.89050e-06	-0.0003313076582009455
5.89075e-06	-0.0003316680800373217
5.89100e-06	-0.0003284265113162409
5.89125e-06	-0.0003247861052496768
5.89150e-06	-0.000321145699183125
5.89175e-06	-0.00031750529311657316
5.89200e-06	-0.00031386488705000904
5.89225e-06	-0.0003102244809834572
5.89250e-06	-0.0003065840749168931
5.89275e-06	-0.0003029436688503413
5.89300e-06	-0.00029930326278378947
5.89325e-06	-0.00029566285671722535
5.89350e-06	-0.00028969796212917917
