Time(s)	Current(A)
1.55000e-06	0.01237881491109776
1.55025e-06	0.012369300985336775
1.55050e-06	0.012359787059575791
1.55075e-06	0.012346361364098765
1.55100e-06	0.012332556680016099
1.55125e-06	0.01231875199593342
1.55150e-06	0.012304947311850754
1.55175e-06	0.012291142627768085
1.55200e-06	0.012277337943685407
1.55225e-06	0.01226353325960274
1.55250e-06	0.012249728575520062
1.55275e-06	0.012235923891437394
1.55300e-06	0.01220951441164368
1.55325e-06	0.012181883726539392
1.55350e-06	0.012154253041435128
1.55375e-06	0.012126622356330842
1.55400e-06	0.012098991671226576
1.55425e-06	0.01207136098612229
1.55450e-06	0.012043730301018025
1.55475e-06	0.012016099615913762
1.55500e-06	0.011988468930809473
1.55525e-06	0.011949782245558017
1.55550e-06	0.011910024408785937
1.55575e-06	0.01187026657201389
1.55600e-06	0.011830508735241845
1.55625e-06	0.011790750898469765
1.55650e-06	0.011750993061697718
1.55675e-06	0.011711235224925638
1.55700e-06	0.01167147738815359
1.55725e-06	0.011631719551381545
1.55750e-06	0.011591961714609465
1.55775e-06	0.011552203877837418
1.55800e-06	0.011514185913077705
1.55825e-06	0.011478654418149261
1.55850e-06	0.011443122923220786
1.55875e-06	0.011407591428292342
1.55900e-06	0.011372059933363899
1.55925e-06	0.011336528438435424
1.55950e-06	0.01130099694350698
1.55975e-06	0.011265465448578506
1.56000e-06	0.011229933953650061
1.56025e-06	0.011194402458721617
1.56050e-06	0.011158870963793144
1.56075e-06	0.011123339468864698
1.56100e-06	0.011102440462974737
1.56125e-06	0.011082959113802722
1.56150e-06	0.011063477764630708
1.56175e-06	0.011043996415458678
1.56200e-06	0.011024515066286664
1.56225e-06	0.011005033717114634
1.56250e-06	0.01098555236794262
1.56275e-06	0.01096607101877059
1.56300e-06	0.010946589669598578
1.56325e-06	0.010927108320426563
1.56350e-06	0.010907626971254534
1.56375e-06	0.01088814562208252
1.56400e-06	0.01086866427291049
1.56425e-06	0.010849182923738475
1.56450e-06	0.010829701574566461
1.56475e-06	0.010810220225394431
1.56500e-06	0.010793951866361496
1.56525e-06	0.010782275226139918
1.56550e-06	0.010770598585918351
1.56575e-06	0.010758921945696784
1.56600e-06	0.010747245305475207
1.56625e-06	0.01073556866525364
1.56650e-06	0.010723892025032064
1.56675e-06	0.010712215384810497
1.56700e-06	0.010700538744588919
1.56725e-06	0.010688862104367352
1.56750e-06	0.010677185464145785
1.56775e-06	0.010665508823924207
1.56800e-06	0.01065383218370264
1.56825e-06	0.010642155543481063
1.56850e-06	0.010630478903259495
1.56875e-06	0.010618802263037928
1.56900e-06	0.010607125622816353
1.56925e-06	0.010600562908190156
1.56950e-06	0.010594495652057388
1.56975e-06	0.010588428395924627
1.57000e-06	0.010582361139791866
1.57025e-06	0.010576293883659098
1.57050e-06	0.010570226627526337
1.57075e-06	0.01056415937139357
1.57100e-06	0.010558092115260808
1.57125e-06	0.010552024859128041
1.57150e-06	0.01054595760299528
1.57175e-06	0.010539890346862518
1.57200e-06	0.010533823090729751
1.57225e-06	0.01053845295329861
1.57250e-06	0.01054411919745279
1.57275e-06	0.010549785441606965
1.57300e-06	0.010555451685761141
1.57325e-06	0.01056111792991532
1.57350e-06	0.010566784174069496
1.57375e-06	0.010572450418223675
1.57400e-06	0.01057811666237785
1.57425e-06	0.010583782906532026
1.57450e-06	0.010589449150686206
1.57475e-06	0.010595115394840381
1.57500e-06	0.01060078163899456
1.57525e-06	0.010615332550564027
1.57550e-06	0.01063074424586014
1.57575e-06	0.010646155941156267
1.57600e-06	0.010661567636452382
1.57625e-06	0.010676979331748509
1.57650e-06	0.010692391027044622
1.57675e-06	0.01070780272234075
1.57700e-06	0.010723214417636864
1.57725e-06	0.010738626112932978
1.57750e-06	0.010754037808229106
1.57775e-06	0.01076944950352522
1.57800e-06	0.010784332156065795
1.57825e-06	0.010799163552732235
1.57850e-06	0.010813994949398675
1.57875e-06	0.010828826346065128
1.57900e-06	0.010843657742731569
1.57925e-06	0.010858489139398022
1.57950e-06	0.01087332053606446
1.57975e-06	0.010888151932730902
1.58000e-06	0.010902983329397353
1.58025e-06	0.010917814726063794
1.58050e-06	0.010932646122730247
1.58075e-06	0.0109463237458274
1.58100e-06	0.01095988958651717
1.58125e-06	0.01097345542720693
1.58150e-06	0.010987021267896689
1.58175e-06	0.011000587108586458
1.58200e-06	0.011014152949276218
1.58225e-06	0.011027718789965987
1.58250e-06	0.011041284630655747
1.58275e-06	0.011054850471345506
1.58300e-06	0.01107227679305472
1.58325e-06	0.011095220169765262
1.58350e-06	0.011118163546475822
1.58375e-06	0.011141106923186364
1.58400e-06	0.011164050299896904
1.58425e-06	0.011186993676607465
1.58450e-06	0.011209937053318008
1.58475e-06	0.011232880430028567
1.58500e-06	0.01125582380673911
1.58525e-06	0.01127876718344967
1.58550e-06	0.011308682393933865
1.58575e-06	0.011339273064823685
1.58600e-06	0.011369863735713531
1.58625e-06	0.011400454406603353
1.58650e-06	0.011431045077493198
1.58675e-06	0.01146163574838302
1.58700e-06	0.01149222641927284
1.58725e-06	0.011522817090162688
1.58750e-06	0.011553407761052507
1.58775e-06	0.011583998431942353
1.58800e-06	0.011614589102832175
1.58825e-06	0.011645179773721995
1.58850e-06	0.011675770444611842
1.58875e-06	0.011706361115501662
1.58900e-06	0.011731361699589462
1.58925e-06	0.011748373430424817
1.58950e-06	0.011765385161260189
1.58975e-06	0.011782396892095544
1.59000e-06	0.0117994086229309
1.59025e-06	0.01181642035376627
1.59050e-06	0.011833432084601627
1.59075e-06	0.011850443815436998
1.59100e-06	0.011867455546272353
1.59125e-06	0.01188446727710771
1.59150e-06	0.01190147900794308
1.59175e-06	0.011918490738778436
1.59200e-06	0.011935502469613807
1.59225e-06	0.011952514200449162
1.59250e-06	0.011969525931284518
1.59275e-06	0.011960436959544267
1.59300e-06	0.011948819242610266
1.59325e-06	0.011937201525676257
1.59350e-06	0.011925583808742257
1.59375e-06	0.011913966091808248
1.59400e-06	0.011902348374874248
1.59425e-06	0.01189073065794025
1.59450e-06	0.011879112941006239
1.59475e-06	0.011867495224072239
1.59500e-06	0.01185587750713823
1.59525e-06	0.01184425979020423
1.59550e-06	0.011832642073270231
1.59575e-06	0.01182102435633622
1.59600e-06	0.011809406639402222
1.59625e-06	0.011785030978899476
1.59650e-06	0.011759419275482345
1.59675e-06	0.011733807572065214
1.59700e-06	0.01170819586864806
1.59725e-06	0.01168258416523093
1.59750e-06	0.011656972461813778
1.59775e-06	0.011631360758396646
1.59800e-06	0.011605749054979493
1.59825e-06	0.011580137351562363
1.59850e-06	0.011554525648145233
1.59875e-06	0.01152891394472808
1.59900e-06	0.011503302241310949
1.59925e-06	0.011477690537893796
1.59950e-06	0.011452078834476666
1.59975e-06	0.011433833725589542
1.60000e-06	0.01141630232318045
1.60025e-06	0.011398770920771375
1.60050e-06	0.011381239518362283
1.60075e-06	0.011363708115953206
1.60100e-06	0.01134617671354413
1.60125e-06	0.011328645311135038
1.60150e-06	0.01131111390872596
1.60175e-06	0.01129358250631687
1.60200e-06	0.011276051103907793
1.60225e-06	0.011258519701498701
1.60250e-06	0.011240988299089625
1.60275e-06	0.011223456896680547
1.60300e-06	0.011205925494271456
1.60325e-06	0.01118839409186238
1.60350e-06	0.011175218320432608
1.60375e-06	0.011162464540743138
1.60400e-06	0.011149710761053666
1.60425e-06	0.011136956981364184
1.60450e-06	0.011124203201674714
1.60475e-06	0.011111449421985232
1.60500e-06	0.011098695642295762
1.60525e-06	0.01108594186260629
1.60550e-06	0.011073188082916808
1.60575e-06	0.011060434303227338
1.60600e-06	0.011047680523537856
1.60625e-06	0.011034926743848386
1.60650e-06	0.011022172964158904
1.60675e-06	0.011009419184469432
1.60700e-06	0.010996665404779962
1.60725e-06	0.010988398969221286
1.60750e-06	0.010980567286323694
1.60775e-06	0.010972735603426093
1.60800e-06	0.010964903920528499
1.60825e-06	0.010957072237630905
1.60850e-06	0.010949240554733303
1.60875e-06	0.010941408871835711
1.60900e-06	0.01093357718893811
1.60925e-06	0.010925745506040516
1.60950e-06	0.010917913823142921
1.60975e-06	0.01091008214024532
1.61000e-06	0.010902250457347726
1.61025e-06	0.010894418774450127
1.61050e-06	0.010886587091552533
1.61075e-06	0.010878755408654931
1.61100e-06	0.010870923725757337
1.61125e-06	0.010863092042859743
1.61150e-06	0.010855260359962144
1.61175e-06	0.01084742867706455
1.61200e-06	0.010839596994166948
1.61225e-06	0.010831765311269354
1.61250e-06	0.01082393362837176
1.61275e-06	0.01081610194547416
1.61300e-06	0.010808270262576566
1.61325e-06	0.010800438579678965
1.61350e-06	0.010792606896781371
1.61375e-06	0.010784775213883777
1.61400e-06	0.010776943530986178
1.61425e-06	0.010769111848088583
1.61450e-06	0.010761280165190982
1.61475e-06	0.010753448482293388
1.61500e-06	0.010745616799395794
1.61525e-06	0.010737785116498194
1.61550e-06	0.0107299534336006
1.61575e-06	0.010722121750703
1.61600e-06	0.010714290067805405
1.61625e-06	0.01070816463321137
1.61650e-06	0.01070447761644337
1.61675e-06	0.010700790599675374
1.61700e-06	0.010697103582907371
1.61725e-06	0.010693416566139374
1.61750e-06	0.010689729549371372
1.61775e-06	0.010686042532603374
1.61800e-06	0.010682355515835375
1.61825e-06	0.010678668499067375
1.61850e-06	0.010674981482299376
1.61875e-06	0.010671294465531375
1.61900e-06	0.010667607448763376
1.61925e-06	0.010663920431995379
1.61950e-06	0.010660233415227377
1.61975e-06	0.01065654639845938
1.62000e-06	0.010652859381691377
1.62025e-06	0.01064917236492338
1.62050e-06	0.010645485348155377
1.62075e-06	0.01064179833138738
1.62100e-06	0.010638111314619381
1.62125e-06	0.01063442429785138
1.62150e-06	0.010630737281083382
1.62175e-06	0.010627050264315381
1.62200e-06	0.010623363247547382
1.62225e-06	0.010619676230779385
1.62250e-06	0.010615989214011383
1.62275e-06	0.010612302197243385
1.62300e-06	0.010608615180475383
1.62325e-06	0.010604928163707386
1.62350e-06	0.010601241146939387
1.62375e-06	0.010597554130171386
1.62400e-06	0.010593867113403387
1.62425e-06	0.010590180096635387
1.62450e-06	0.010586493079867388
1.62475e-06	0.010582806063099387
1.62500e-06	0.010579119046331388
1.62525e-06	0.01057543202956339
1.62550e-06	0.010573619089803983
1.62575e-06	0.01057198771846067
1.62600e-06	0.010570356347117355
1.62625e-06	0.010568724975774041
1.62650e-06	0.010567093604430727
1.62675e-06	0.010565462233087412
1.62700e-06	0.010563830861744098
1.62725e-06	0.010562199490400784
1.62750e-06	0.01056056811905747
1.62775e-06	0.010558936747714156
1.62800e-06	0.01055730537637084
1.62825e-06	0.010555674005027526
1.62850e-06	0.01055404263368421
1.62875e-06	0.010552411262340898
1.62900e-06	0.010550779890997583
1.62925e-06	0.010549148519654269
1.62950e-06	0.010547517148310955
1.62975e-06	0.01054588577696764
1.63000e-06	0.010544254405624325
1.63025e-06	0.010542623034281011
1.63050e-06	0.010540991662937697
1.63075e-06	0.010539360291594383
1.63100e-06	0.010537728920251068
1.63125e-06	0.010536097548907754
1.63150e-06	0.01053446617756444
1.63175e-06	0.010532834806221126
1.63200e-06	0.010531203434877812
1.63225e-06	0.010529572063534496
1.63250e-06	0.010527940692191182
1.63275e-06	0.010526309320847867
1.63300e-06	0.010524677949504554
1.63325e-06	0.010523046578161239
1.63350e-06	0.010521415206817925
1.63375e-06	0.010520598029608813
1.63400e-06	0.010520944426005222
1.63425e-06	0.010521290822401632
1.63450e-06	0.01052163721879804
1.63475e-06	0.01052198361519445
1.63500e-06	0.01052233001159086
1.63525e-06	0.010522676407987269
1.63550e-06	0.010523022804383678
1.63575e-06	0.010523369200780088
1.63600e-06	0.010523715597176497
1.63625e-06	0.010524061993572906
1.63650e-06	0.010524408389969316
1.63675e-06	0.010524754786365725
1.63700e-06	0.010525101182762134
1.63725e-06	0.010525447579158544
1.63750e-06	0.010525793975554953
1.63775e-06	0.010526140371951362
1.63800e-06	0.010526486768347772
1.63825e-06	0.010526833164744181
1.63850e-06	0.01052717956114059
1.63875e-06	0.010527525957537
1.63900e-06	0.01052787235393341
1.63925e-06	0.010528218750329818
1.63950e-06	0.010528565146726229
1.63975e-06	0.010528911543122637
1.64000e-06	0.010529257939519046
1.64025e-06	0.010529604335915455
1.64050e-06	0.010529950732311865
1.64075e-06	0.010530297128708274
1.64100e-06	0.010530643525104683
1.64125e-06	0.010530989921501093
1.64150e-06	0.010531336317897502
1.64175e-06	0.010531682714293911
1.64200e-06	0.010532029110690322
1.64225e-06	0.010537045048652617
1.64250e-06	0.010542513391324998
1.64275e-06	0.010547981733997373
1.64300e-06	0.010553450076669755
1.64325e-06	0.010558918419342131
1.64350e-06	0.010564386762014507
1.64375e-06	0.010569855104686887
1.64400e-06	0.010575323447359264
1.64425e-06	0.010580791790031643
1.64450e-06	0.01058626013270402
1.64475e-06	0.010591728475376396
1.64500e-06	0.010597196818048776
1.64525e-06	0.010602665160721152
1.64550e-06	0.010608133503393534
1.64575e-06	0.01061360184606591
1.64600e-06	0.01061907018873829
1.64625e-06	0.010624538531410667
1.64650e-06	0.010632232265341709
1.64675e-06	0.01064014160448216
1.64700e-06	0.010648050943622603
1.64725e-06	0.010655960282763052
1.64750e-06	0.010663869621903495
1.64775e-06	0.010671778961043939
1.64800e-06	0.01067968830018439
1.64825e-06	0.010687597639324831
1.64850e-06	0.010695506978465281
1.64875e-06	0.010703416317605725
1.64900e-06	0.010711325656746169
1.64925e-06	0.010719234995886617
1.64950e-06	0.010727144335027061
1.64975e-06	0.010735053674167511
1.65000e-06	0.010742963013307955
1.65025e-06	0.010750872352448398
1.65050e-06	0.010758781691588847
1.65075e-06	0.010756226460774863
1.65100e-06	0.010752657378671869
1.65125e-06	0.010749088296568876
1.65150e-06	0.010745519214465881
1.65175e-06	0.010741950132362888
1.65200e-06	0.010738381050259895
1.65225e-06	0.0107348119681569
1.65250e-06	0.010731242886053908
1.65275e-06	0.010727673803950913
1.65300e-06	0.01072410472184792
1.65325e-06	0.010720535639744929
1.65350e-06	0.010701118817144613
1.65375e-06	0.010680166599186424
1.65400e-06	0.010659214381228216
1.65425e-06	0.010638262163270025
1.65450e-06	0.010617309945311834
1.65475e-06	0.010596357727353628
1.65500e-06	0.010575405509395437
1.65525e-06	0.010554453291437229
1.65550e-06	0.010533501073479038
1.65575e-06	0.010512548855520831
1.65600e-06	0.01049159663756264
1.65625e-06	0.010462518845694511
1.65650e-06	0.010432653814253434
1.65675e-06	0.010402788782812382
1.65700e-06	0.010372923751371305
1.65725e-06	0.010343058719930253
1.65750e-06	0.010313193688489201
1.65775e-06	0.010283328657048124
1.65800e-06	0.010253463625607072
1.65825e-06	0.010223598594165995
1.65850e-06	0.010193733562724943
1.65875e-06	0.010163868531283891
1.65900e-06	0.010134003499842814
1.65925e-06	0.010104138468401762
1.65950e-06	0.010080192489330411
1.65975e-06	0.010064705491743701
1.66000e-06	0.010049218494156978
1.66025e-06	0.010033731496570268
1.66050e-06	0.010018244498983558
1.66075e-06	0.010002757501396835
1.66100e-06	0.009987270503810125
1.66125e-06	0.009971783506223401
1.66150e-06	0.009956296508636692
1.66175e-06	0.009940809511049982
1.66200e-06	0.009925322513463258
1.66225e-06	0.009909835515876549
1.66250e-06	0.009894348518289825
1.66275e-06	0.009878861520703115
1.66300e-06	0.00988988456291717
1.66325e-06	0.00990347600862369
1.66350e-06	0.009917067454330198
1.66375e-06	0.009930658900036719
1.66400e-06	0.00994425034574323
1.66425e-06	0.00995784179144975
1.66450e-06	0.009971433237156258
1.66475e-06	0.009985024682862768
1.66500e-06	0.009998616128569289
1.66525e-06	0.010012207574275797
1.66550e-06	0.010025799019982318
1.66575e-06	0.010039390465688828
1.66600e-06	0.010052981911395337
1.66625e-06	0.010072227011042635
1.66650e-06	0.01009955180842128
1.66675e-06	0.010126876605799948
1.66700e-06	0.010154201403178593
1.66725e-06	0.010181526200557239
1.66750e-06	0.010208850997935908
1.66775e-06	0.010236175795314552
1.66800e-06	0.010263500592693221
1.66825e-06	0.010290825390071865
1.66850e-06	0.010318150187450534
1.66875e-06	0.010345474984829179
1.66900e-06	0.010372799782207825
1.66925e-06	0.010400124579586492
1.66950e-06	0.010427449376965138
1.66975e-06	0.010439514020970563
1.67000e-06	0.010450100197515754
1.67025e-06	0.010460686374060946
1.67050e-06	0.010471272550606148
1.67075e-06	0.01048185872715134
1.67100e-06	0.01049244490369654
1.67125e-06	0.010503031080241731
1.67150e-06	0.010513617256786923
1.67175e-06	0.010524203433332125
1.67200e-06	0.010534789609877316
1.67225e-06	0.010545375786422517
1.67250e-06	0.010555961962967708
1.67275e-06	0.010566548139512908
1.67300e-06	0.0105771343160581
1.67325e-06	0.010587720492603293
1.67350e-06	0.010598306669148494
1.67375e-06	0.010608892845693685
1.67400e-06	0.010619479022238885
1.67425e-06	0.010630065198784077
1.67450e-06	0.010633173490315829
1.67475e-06	0.010625595055845451
1.67500e-06	0.010618016621375077
1.67525e-06	0.0106104381869047
1.67550e-06	0.010602859752434326
1.67575e-06	0.010595281317963954
1.67600e-06	0.010587702883493576
1.67625e-06	0.010580124449023202
1.67650e-06	0.010572546014552825
1.67675e-06	0.01056496758008245
1.67700e-06	0.010557389145612073
1.67725e-06	0.0105498107111417
1.67750e-06	0.010542232276671327
1.67775e-06	0.01053465384220095
1.67800e-06	0.010527075407730575
1.67825e-06	0.010519496973260198
1.67850e-06	0.010511918538789824
1.67875e-06	0.010504340104319452
1.67900e-06	0.010496761669849074
1.67925e-06	0.0104891832353787
1.67950e-06	0.01048396563901792
1.67975e-06	0.010478976770523628
1.68000e-06	0.010473987902029335
1.68025e-06	0.01046899903353504
1.68050e-06	0.01046401016504075
1.68075e-06	0.010459021296546453
1.68100e-06	0.010454032428052162
1.68125e-06	0.010449043559557867
1.68150e-06	0.010444054691063576
1.68175e-06	0.010439065822569284
1.68200e-06	0.010434076954074988
1.68225e-06	0.010429088085580697
1.68250e-06	0.0104240992170864
1.68275e-06	0.010419110348592109
1.68300e-06	0.010414121480097818
1.68325e-06	0.010409132611603523
1.68350e-06	0.010404143743109232
1.68375e-06	0.010399154874614935
1.68400e-06	0.0103975935869382
1.68425e-06	0.010400930691919209
1.68450e-06	0.010404267796900223
1.68475e-06	0.010407604901881232
1.68500e-06	0.010410942006862245
1.68525e-06	0.010414279111843255
1.68550e-06	0.010417616216824268
1.68575e-06	0.010420953321805279
1.68600e-06	0.010424290426786288
1.68625e-06	0.010427627531767302
1.68650e-06	0.010430964636748311
1.68675e-06	0.010434301741729324
1.68700e-06	0.010437638846710335
1.68725e-06	0.010440975951691345
1.68750e-06	0.010444313056672358
1.68775e-06	0.010447650161653367
1.68800e-06	0.010450987266634381
1.68825e-06	0.01045432437161539
1.68850e-06	0.010457661476596401
1.68875e-06	0.010460419840627915
1.68900e-06	0.010463122133816592
1.68925e-06	0.010465824427005268
1.68950e-06	0.010468526720193943
1.68975e-06	0.01047122901338262
1.69000e-06	0.010473931306571297
1.69025e-06	0.010476633599759973
1.69050e-06	0.01047933589294865
1.69075e-06	0.010482038186137325
1.69100e-06	0.010484740479326004
1.69125e-06	0.010487442772514679
1.69150e-06	0.01048485473725391
1.69175e-06	0.010474706236635174
1.69200e-06	0.010464557736016447
1.69225e-06	0.01045440923539771
1.69250e-06	0.010444260734778983
1.69275e-06	0.010434112234160254
1.69300e-06	0.010423963733541519
1.69325e-06	0.01041381523292279
1.69350e-06	0.010403666732304055
1.69375e-06	0.010393518231685326
1.69400e-06	0.0103833697310666
1.69425e-06	0.010373221230447862
1.69450e-06	0.010348811653993666
1.69475e-06	0.010323020404888734
1.69500e-06	0.010297229155783827
1.69525e-06	0.010271437906678896
1.69550e-06	0.010245646657573987
1.69575e-06	0.01021985540846908
1.69600e-06	0.010194064159364148
1.69625e-06	0.01016827291025924
1.69650e-06	0.01014248166115431
1.69675e-06	0.010116690412049401
1.69700e-06	0.010090899162944492
1.69725e-06	0.010065107913839562
1.69750e-06	0.010039316664734654
1.69775e-06	0.010013525415629724
1.69800e-06	0.009989271211166013
1.69825e-06	0.009965165922013321
1.69850e-06	0.009941060632860611
1.69875e-06	0.009916955343707921
1.69900e-06	0.00989285005455521
1.69925e-06	0.00986874476540252
1.69950e-06	0.00984463947624981
1.69975e-06	0.009820534187097118
1.70000e-06	0.009796428897944428
1.70025e-06	0.009772323608791718
1.70050e-06	0.009748218319639027
1.70075e-06	0.009724113030486316
1.70100e-06	0.009700007741333627
1.70125e-06	0.009675902452180935
1.70150e-06	0.009672041576123757
1.70175e-06	0.0096701420634464
1.70200e-06	0.009668242550769042
