Time(s)	Current(A)
1.75000e-06	-0.013769807409478722
1.75025e-06	-0.013782951475415129
1.75050e-06	-0.013796095541351534
1.75075e-06	-0.013802393780633979
1.75100e-06	-0.013808211752757602
1.75125e-06	-0.01381402972488123
1.75150e-06	-0.013810039843615833
1.75175e-06	-0.013805361894989224
1.75200e-06	-0.01380068394636262
1.75225e-06	-0.013796005997736014
1.75250e-06	-0.013791328049109404
1.75275e-06	-0.013781462807916254
1.75300e-06	-0.013764844795888935
1.75325e-06	-0.013748226783861629
1.75350e-06	-0.013731608771834323
1.75375e-06	-0.013714990759807004
1.75400e-06	-0.013698372747779698
1.75425e-06	-0.013673687040764713
1.75450e-06	-0.013648435346741105
1.75475e-06	-0.013623183652717495
1.75500e-06	-0.013597931958693864
1.75525e-06	-0.013572680264670256
1.75550e-06	-0.013542994723750115
1.75575e-06	-0.013512998127473353
1.75600e-06	-0.013483001531196569
1.75625e-06	-0.013453004934919808
1.75650e-06	-0.013423008338643048
1.75675e-06	-0.013392013630761172
1.75700e-06	-0.013360948900623585
1.75725e-06	-0.01333023924026963
1.75750e-06	-0.013299554489742486
1.75775e-06	-0.013269562038266569
1.75800e-06	-0.013240330905222057
1.75825e-06	-0.013212044411603396
1.75850e-06	-0.013184890241676015
1.75875e-06	-0.013159059072353766
1.75900e-06	-0.013134740084226269
1.75925e-06	-0.013112122335776149
1.75950e-06	-0.01309145058270706
1.75975e-06	-0.013073013520523959
1.76000e-06	-0.01305700170197973
1.76025e-06	-0.013044643355649201
1.76050e-06	-0.013032530108582465
1.76075e-06	-0.013025111528054828
1.76100e-06	-0.013018022300616848
1.76125e-06	-0.013015693445033337
1.76150e-06	-0.013013698552078509
1.76175e-06	-0.01301787502724263
1.76200e-06	-0.013022484453105259
1.76225e-06	-0.013027093878967893
1.76250e-06	-0.013041325421701111
1.76275e-06	-0.013056232001499043
1.76300e-06	-0.013071138581296963
1.76325e-06	-0.013086045161094882
1.76350e-06	-0.013100951740892814
1.76375e-06	-0.013120528745196623
1.76400e-06	-0.013146185666139034
1.76425e-06	-0.013171842587081426
1.76450e-06	-0.013197499508023817
1.76475e-06	-0.01322315642896623
1.76500e-06	-0.013248813349908621
1.76525e-06	-0.013280552660549779
1.76550e-06	-0.013312718679631848
1.76575e-06	-0.013344884698713946
1.76600e-06	-0.013377050717796015
1.76625e-06	-0.013409216736878084
1.76650e-06	-0.01344138275596018
1.76675e-06	-0.013473847422380714
1.76700e-06	-0.013506333040326335
1.76725e-06	-0.013538818658271926
1.76750e-06	-0.013571304276217517
1.76775e-06	-0.013603789894163136
1.76800e-06	-0.013636275512108728
1.76825e-06	-0.013664582242988521
1.76850e-06	-0.01369259580515124
1.76875e-06	-0.013720609367313955
1.76900e-06	-0.01373738354938423
1.76925e-06	-0.013753369235716217
1.76950e-06	-0.013769354922048218
1.76975e-06	-0.013785340608380206
1.77000e-06	-0.013801326294712207
1.77025e-06	-0.013817311981044194
1.77050e-06	-0.013833297667376182
1.77075e-06	-0.013849283353708183
1.77100e-06	-0.01386526904004017
1.77125e-06	-0.013881254726372172
1.77150e-06	-0.013897240412704159
1.77175e-06	-0.013913226099036146
1.77200e-06	-0.013916806389756474
1.77225e-06	-0.013919516383228176
1.77250e-06	-0.01392222637669988
1.77275e-06	-0.013924936370171583
1.77300e-06	-0.013927646363643284
1.77325e-06	-0.013930356357114988
1.77350e-06	-0.01393306635058669
1.77375e-06	-0.013935776344058395
1.77400e-06	-0.013938486337530098
1.77425e-06	-0.013941196331001802
1.77450e-06	-0.013943906324473503
1.77475e-06	-0.013946616317945205
1.77500e-06	-0.01394281553835757
1.77525e-06	-0.013938557997207715
1.77550e-06	-0.013934300456057857
1.77575e-06	-0.013930042914908002
1.77600e-06	-0.013925785373758147
1.77625e-06	-0.013921527832608289
1.77650e-06	-0.013917270291458434
1.77675e-06	-0.013913012750308576
1.77700e-06	-0.013908755209158722
1.77725e-06	-0.013904497668008867
1.77750e-06	-0.013900240126859009
1.77775e-06	-0.013895982585709154
1.77800e-06	-0.013891725044559296
1.77825e-06	-0.013887467503409441
1.77850e-06	-0.013883209962259583
1.77875e-06	-0.013878952421109729
1.77900e-06	-0.01387632299022865
1.77925e-06	-0.013873807778992915
1.77950e-06	-0.013871292567757184
1.77975e-06	-0.01386877735652145
1.78000e-06	-0.013866262145285718
1.78025e-06	-0.013863746934049986
1.78050e-06	-0.013861231722814253
1.78075e-06	-0.013858716511578521
1.78100e-06	-0.013856201300342787
1.78125e-06	-0.013853686089107056
1.78150e-06	-0.013851170877871324
1.78175e-06	-0.013848655666635588
1.78200e-06	-0.013846140455399857
1.78225e-06	-0.013843625244164123
1.78250e-06	-0.013841110032928391
1.78275e-06	-0.013838594821692658
1.78300e-06	-0.013840515037824425
1.78325e-06	-0.013842746420190162
1.78350e-06	-0.013844977802555902
1.78375e-06	-0.01384720918492164
1.78400e-06	-0.01384944056728738
1.78425e-06	-0.013851671949653116
1.78450e-06	-0.013853903332018854
1.78475e-06	-0.013856134714384594
1.78500e-06	-0.013858366096750332
1.78525e-06	-0.01386059747911607
1.78550e-06	-0.013862828861481808
1.78575e-06	-0.013865060243847547
1.78600e-06	-0.013867291626213286
1.78625e-06	-0.013869523008579023
1.78650e-06	-0.013872698932402183
1.78675e-06	-0.013875941120281485
1.78700e-06	-0.01387918330816079
1.78725e-06	-0.013882425496040093
1.78750e-06	-0.013885667683919396
1.78775e-06	-0.013888539471757921
1.78800e-06	-0.013890929076153006
1.78825e-06	-0.013893318680548094
1.78850e-06	-0.01389570828494318
1.78875e-06	-0.013898097889338266
1.78900e-06	-0.013900487493733354
1.78925e-06	-0.013901153833495774
1.78950e-06	-0.01390169927808364
1.78975e-06	-0.013902244722671505
1.79000e-06	-0.013898534551469737
1.79025e-06	-0.01389452582866773
1.79050e-06	-0.013890517105865726
1.79075e-06	-0.013879440057615154
1.79100e-06	-0.013867867132862123
1.79125e-06	-0.013856294208109084
1.79150e-06	-0.013844721283356053
1.79175e-06	-0.013833148358603024
1.79200e-06	-0.013821575433849983
1.79225e-06	-0.013799976284098327
1.79250e-06	-0.013777673747183562
1.79275e-06	-0.013755371210268817
1.79300e-06	-0.013733068673354071
1.79325e-06	-0.013710766136439305
1.79350e-06	-0.01368846359952456
1.79375e-06	-0.013658094367112508
1.79400e-06	-0.013627159217811328
1.79425e-06	-0.01359622406851015
1.79450e-06	-0.013565288919208943
1.79475e-06	-0.013534353769907763
1.79500e-06	-0.013501320618866093
1.79525e-06	-0.013465556308018461
1.79550e-06	-0.013429791997170799
1.79575e-06	-0.013394027686323166
1.79600e-06	-0.013358263375475535
1.79625e-06	-0.013322499064627872
1.79650e-06	-0.013285702733327213
1.79675e-06	-0.013248834000904592
1.79700e-06	-0.013212511797462762
1.79725e-06	-0.01317622793561703
1.79750e-06	-0.013141156793730967
1.79775e-06	-0.013106170729892962
1.79800e-06	-0.013072405653570865
1.79825e-06	-0.013040400633010438
1.79850e-06	-0.013008513079378179
1.79875e-06	-0.012984919506517352
1.79900e-06	-0.012961907795683932
1.79925e-06	-0.012938896084850493
1.79950e-06	-0.012915884374017073
1.79975e-06	-0.012892872663183634
1.80000e-06	-0.012869860952350215
1.80025e-06	-0.012846849241516795
1.80050e-06	-0.012823837530683356
1.80075e-06	-0.012800825819849936
1.80100e-06	-0.012777814109016497
1.80125e-06	-0.01275480239818308
1.80150e-06	-0.012739354354134258
1.80175e-06	-0.012724436937128186
1.80200e-06	-0.012709519520122128
1.80225e-06	-0.012694602103116057
1.80250e-06	-0.012679684686109997
1.80275e-06	-0.012664767269103937
1.80300e-06	-0.012649849852097866
1.80325e-06	-0.012634932435091806
1.80350e-06	-0.012620015018085734
1.80375e-06	-0.012605097601079676
1.80400e-06	-0.012590180184073617
1.80425e-06	-0.012578483835107668
1.80450e-06	-0.012567013459318132
1.80475e-06	-0.012555543083528586
1.80500e-06	-0.01254407270773905
1.80525e-06	-0.012532602331949503
1.80550e-06	-0.012521131956159967
1.80575e-06	-0.01250966158037043
1.80600e-06	-0.012498191204580884
1.80625e-06	-0.012486720828791348
1.80650e-06	-0.012477550767567179
1.80675e-06	-0.012468542084302923
1.80700e-06	-0.012459533401038668
1.80725e-06	-0.012450524717774405
1.80750e-06	-0.01244151603451015
1.80775e-06	-0.012432507351245885
1.80800e-06	-0.01242349866798163
1.80825e-06	-0.012414489984717374
1.80850e-06	-0.012405481301453112
1.80875e-06	-0.012397714492162676
1.80900e-06	-0.012390356805771125
1.80925e-06	-0.012383388962724227
1.80950e-06	-0.012377112640097448
1.80975e-06	-0.01237218320539787
1.81000e-06	-0.012370012794480315
1.81025e-06	-0.01236802954305767
1.81050e-06	-0.012369539116578222
1.81075e-06	-0.012371293728308799
1.81100e-06	-0.01237626311401226
1.81125e-06	-0.012381458031333465
1.81150e-06	-0.012391054479559805
1.81175e-06	-0.012400959716022557
1.81200e-06	-0.012410864952485319
1.81225e-06	-0.012428880595687886
1.81250e-06	-0.012447465222330025
1.81275e-06	-0.01246604984897218
1.81300e-06	-0.01248463447561432
1.81325e-06	-0.012503219102256475
1.81350e-06	-0.01252574534442723
1.81375e-06	-0.012553402746259922
1.81400e-06	-0.01258106014809259
1.81425e-06	-0.01260871754992526
1.81450e-06	-0.012636374951757953
1.81475e-06	-0.012664032353590622
1.81500e-06	-0.01269710174784301
1.81525e-06	-0.012730550818992043
1.81550e-06	-0.012763999890141074
1.81575e-06	-0.012797448961290134
1.81600e-06	-0.012830898032439165
1.81625e-06	-0.012864347103588225
1.81650e-06	-0.012898224637213162
1.81675e-06	-0.012932132229509763
1.81700e-06	-0.01296603982180639
1.81725e-06	-0.012999947414102991
1.81750e-06	-0.01303385500639962
1.81775e-06	-0.013067762598696221
1.81800e-06	-0.013098057123872048
1.81825e-06	-0.013128098175279702
1.81850e-06	-0.013158139226687357
1.81875e-06	-0.013178499217169909
1.81900e-06	-0.013198180035384045
1.81925e-06	-0.013217860853598199
1.81950e-06	-0.013237541671812335
1.81975e-06	-0.013257222490026473
1.82000e-06	-0.013276903308240625
1.82025e-06	-0.013296584126454764
1.82050e-06	-0.013316264944668917
1.82075e-06	-0.013329490840599187
1.82100e-06	-0.013334313776727353
1.82125e-06	-0.013339136712855524
1.82150e-06	-0.013343959648983692
1.82175e-06	-0.013348782585111863
1.82200e-06	-0.013353605521240031
1.82225e-06	-0.013358428457368203
1.82250e-06	-0.013363251393496369
1.82275e-06	-0.013368074329624537
1.82300e-06	-0.0133620364484421
1.82325e-06	-0.013355236629494189
1.82350e-06	-0.013348436810546272
1.82375e-06	-0.013341636991598361
1.82400e-06	-0.01333483717265045
1.82425e-06	-0.013328037353702533
1.82450e-06	-0.013321237534754622
1.82475e-06	-0.013314437715806704
1.82500e-06	-0.013301549711958606
1.82525e-06	-0.013288234593109328
1.82550e-06	-0.01327491947426004
1.82575e-06	-0.013261604355410763
1.82600e-06	-0.013248289236561473
1.82625e-06	-0.013234974117712196
1.82650e-06	-0.013221658998862908
1.82675e-06	-0.01320834388001363
1.82700e-06	-0.013193894800556131
1.82725e-06	-0.013179366168392118
1.82750e-06	-0.013164837536228116
1.82775e-06	-0.013150308904064103
1.82800e-06	-0.013135780271900101
1.82825e-06	-0.0131212516397361
1.82850e-06	-0.01310930190493896
1.82875e-06	-0.013097533092004404
1.82900e-06	-0.013085764279069836
1.82925e-06	-0.013073995466135278
1.82950e-06	-0.01306222665320072
1.82975e-06	-0.013050457840266153
1.83000e-06	-0.013043431413625605
1.83025e-06	-0.01303673768784098
1.83050e-06	-0.013030043962056361
1.83075e-06	-0.013023350236271736
1.83100e-06	-0.013016656510487116
1.83125e-06	-0.013009962784702496
1.83150e-06	-0.013003269058917872
1.83175e-06	-0.012996575333133252
1.83200e-06	-0.012989881607348626
1.83225e-06	-0.012983187881564006
1.83250e-06	-0.012976494155779388
1.83275e-06	-0.012969800429994762
1.83300e-06	-0.012963106704210142
1.83325e-06	-0.012956412978425516
1.83350e-06	-0.012949719252640896
1.83375e-06	-0.012947050695394419
1.83400e-06	-0.012944664522781908
1.83425e-06	-0.0129422783501694
1.83450e-06	-0.01293989217755689
1.83475e-06	-0.012937506004944381
1.83500e-06	-0.012935119832331872
1.83525e-06	-0.012932733659719364
1.83550e-06	-0.012930347487106855
1.83575e-06	-0.012927961314494345
1.83600e-06	-0.012925575141881838
1.83625e-06	-0.012923188969269327
1.83650e-06	-0.012920802796656819
1.83675e-06	-0.012918416624044311
1.83700e-06	-0.0129160304514318
1.83725e-06	-0.012913644278819292
1.83750e-06	-0.01291180765212038
1.83775e-06	-0.012910009578669656
1.83800e-06	-0.01290821150521893
1.83825e-06	-0.012906413431768205
1.83850e-06	-0.012904615358317481
1.83875e-06	-0.012902817284866756
1.83900e-06	-0.01290101921141603
1.83925e-06	-0.012899221137965305
1.83950e-06	-0.012897423064514581
1.83975e-06	-0.012895624991063857
1.84000e-06	-0.012891893277715807
1.84025e-06	-0.0128856443693323
1.84050e-06	-0.01287939546094879
1.84075e-06	-0.012873146552565284
1.84100e-06	-0.012866897644181778
1.84125e-06	-0.012860648735798267
1.84150e-06	-0.01285439982741476
1.84175e-06	-0.01284815091903125
1.84200e-06	-0.012841902010647744
1.84225e-06	-0.012835653102264238
1.84250e-06	-0.012829404193880727
1.84275e-06	-0.0128177222370865
1.84300e-06	-0.012805659126218356
1.84325e-06	-0.01279359601535022
1.84350e-06	-0.012781532904482085
1.84375e-06	-0.012769469793613939
1.84400e-06	-0.012757406682745803
1.84425e-06	-0.012745343571877657
1.84450e-06	-0.01273194066974625
1.84475e-06	-0.01271679363939269
1.84500e-06	-0.012701646609039142
1.84525e-06	-0.012686499578685596
1.84550e-06	-0.012671352548332036
1.84575e-06	-0.012656205517978488
1.84600e-06	-0.01264105848762493
1.84625e-06	-0.012625911457271382
1.84650e-06	-0.012610506693383285
1.84675e-06	-0.012595083848267245
1.84700e-06	-0.012579661003151218
1.84725e-06	-0.012564238158035177
1.84750e-06	-0.012548815312919149
1.84775e-06	-0.012533392467803122
1.84800e-06	-0.012519160974764083
1.84825e-06	-0.012506480373148911
1.84850e-06	-0.012493799771533727
1.84875e-06	-0.012481119169918554
1.84900e-06	-0.01246843856830337
1.84925e-06	-0.012455757966688198
1.84950e-06	-0.012443077365073024
1.84975e-06	-0.012435316662329256
1.85000e-06	-0.012427901113789178
1.85025e-06	-0.012420485565249093
1.85050e-06	-0.012413070016709013
1.85075e-06	-0.012405654468168935
1.85100e-06	-0.01239823891962885
1.85125e-06	-0.012390823371088771
1.85150e-06	-0.012383407822548686
1.85175e-06	-0.012375992274008608
1.85200e-06	-0.012368576725468528
1.85225e-06	-0.012361161176928443
1.85250e-06	-0.012353745628388365
1.85275e-06	-0.01234633007984828
1.85300e-06	-0.01234327732408235
1.85325e-06	-0.012340530638889211
1.85350e-06	-0.012337783953696077
1.85375e-06	-0.01233503726850294
1.85400e-06	-0.012332290583309802
1.85425e-06	-0.012329543898116668
1.85450e-06	-0.01232679721292353
1.85475e-06	-0.012324050527730395
1.85500e-06	-0.012321303842537261
1.85525e-06	-0.012318557157344123
1.85550e-06	-0.012315810472150987
1.85575e-06	-0.01231306378695785
1.85600e-06	-0.012310317101764714
1.85625e-06	-0.012309043692861794
1.85650e-06	-0.012307873641267219
1.85675e-06	-0.012306703589672643
1.85700e-06	-0.012305533538078067
1.85725e-06	-0.012304363486483491
1.85750e-06	-0.012303193434888915
1.85775e-06	-0.012302074294035388
1.85800e-06	-0.012300958724811427
1.85825e-06	-0.012299843155587466
1.85850e-06	-0.012298727586363505
1.85875e-06	-0.012297612017139544
1.85900e-06	-0.012296496447915584
1.85925e-06	-0.012295311112120559
1.85950e-06	-0.0122941208818702
1.85975e-06	-0.012292930651619842
1.86000e-06	-0.012294643290905146
1.86025e-06	-0.012296559580234677
1.86050e-06	-0.012298475869564205
1.86075e-06	-0.012300392158893735
1.86100e-06	-0.012302308448223264
1.86125e-06	-0.012304224737552796
1.86150e-06	-0.012306141026882324
1.86175e-06	-0.012310322580361162
1.86200e-06	-0.012317453034345104
1.86225e-06	-0.012324583488329047
1.86250e-06	-0.012331713942312994
1.86275e-06	-0.012338844396296938
1.86300e-06	-0.012345974850280885
1.86325e-06	-0.012353105304264828
1.86350e-06	-0.01236023575824877
1.86375e-06	-0.012371680883031992
1.86400e-06	-0.012383428702403514
1.86425e-06	-0.012395176521775044
1.86450e-06	-0.012406924341146566
1.86475e-06	-0.012418672160518087
1.86500e-06	-0.012430419979889619
1.86525e-06	-0.01244216779926114
1.86550e-06	-0.012453915618632672
1.86575e-06	-0.01246711493804222
1.86600e-06	-0.012480416087052889
1.86625e-06	-0.012493717236063547
1.86650e-06	-0.012507018385074205
1.86675e-06	-0.012520319534084876
1.86700e-06	-0.012533620683095534
1.86725e-06	-0.012546921832106202
1.86750e-06	-0.01256022298111686
1.86775e-06	-0.012571442921185798
1.86800e-06	-0.012582516854592116
1.86825e-06	-0.012593590787998425
1.86850e-06	-0.012604664721404743
1.86875e-06	-0.01261573865481105
1.86900e-06	-0.012625267427848237
1.86925e-06	-0.012632784725007786
1.86950e-06	-0.012640302022167328
1.86975e-06	-0.012647819319326875
1.87000e-06	-0.012655336616486419
1.87025e-06	-0.012662853913645966
1.87050e-06	-0.01266801465211824
1.87075e-06	-0.012673010066839354
1.87100e-06	-0.012678005481560473
1.87125e-06	-0.012683000896281587
1.87150e-06	-0.012687996311002706
1.87175e-06	-0.01269299172572382
1.87200e-06	-0.012697987140444934
1.87225e-06	-0.012702982555166054
1.87250e-06	-0.012707977969887168
1.87275e-06	-0.012712973384608285
1.87300e-06	-0.012717968799329401
1.87325e-06	-0.012722964214050515
1.87350e-06	-0.012727959628771632
1.87375e-06	-0.012732955043492747
1.87400e-06	-0.012736520916929516
1.87425e-06	-0.012739986501275741
1.87450e-06	-0.012743452085621972
1.87475e-06	-0.012746917669968197
1.87500e-06	-0.012750383254314424
1.87525e-06	-0.012753848838660653
1.87550e-06	-0.01275731442300688
1.87575e-06	-0.012760780007353109
1.87600e-06	-0.012764245591699334
1.87625e-06	-0.012767711176045561
1.87650e-06	-0.01277117676039179
1.87675e-06	-0.012774642344738017
1.87700e-06	-0.012778107929084246
1.87725e-06	-0.012781573513430473
1.87750e-06	-0.01278309342476716
1.87775e-06	-0.012784476837928712
1.87800e-06	-0.012785860251090261
1.87825e-06	-0.012787243664251813
1.87850e-06	-0.012788627077413363
1.87875e-06	-0.012790010490574913
1.87900e-06	-0.012791393903736464
1.87925e-06	-0.012792777316898015
1.87950e-06	-0.012794160730059565
1.87975e-06	-0.012795544143221116
1.88000e-06	-0.012794280188342751
1.88025e-06	-0.012789569913549898
1.88050e-06	-0.012784859638757045
1.88075e-06	-0.012780149363964188
1.88100e-06	-0.012775439089171335
1.88125e-06	-0.012770728814378478
1.88150e-06	-0.012766018539585625
1.88175e-06	-0.012761308264792772
1.88200e-06	-0.012756597989999915
1.88225e-06	-0.012751887715207062
1.88250e-06	-0.012747177440414204
1.88275e-06	-0.01273597223353025
1.88300e-06	-0.012724311376404134
1.88325e-06	-0.012712650519278008
1.88350e-06	-0.012700989662151892
1.88375e-06	-0.012689328805025765
1.88400e-06	-0.012677667947899648
1.88425e-06	-0.01266600709077352
1.88450e-06	-0.012654346233647404
1.88475e-06	-0.012639295569679784
1.88500e-06	-0.012624007094710205
1.88525e-06	-0.012608718619740639
1.88550e-06	-0.01259343014477106
1.88575e-06	-0.012578141669801495
1.88600e-06	-0.012562853194831929
1.88625e-06	-0.01254756471986235
1.88650e-06	-0.012532276244892783
1.88675e-06	-0.012516687418307743
1.88700e-06	-0.012501077520634613
1.88725e-06	-0.012485467622961483
1.88750e-06	-0.012469857725288339
1.88775e-06	-0.012454247827615209
1.88800e-06	-0.012440420763174772
1.88825e-06	-0.012426718772928
1.88850e-06	-0.012413016782681214
1.88875e-06	-0.012399314792434443
1.88900e-06	-0.01238561280218767
1.88925e-06	-0.012374141949784518
1.88950e-06	-0.012362827622266374
1.88975e-06	-0.012351513294748219
1.89000e-06	-0.01233877466828085
1.89025e-06	-0.012325936120497611
1.89050e-06	-0.01231309757271436
1.89075e-06	-0.012300259024931122
1.89100e-06	-0.012287420477147874
1.89125e-06	-0.012274581929364634
1.89150e-06	-0.012261743381581395
1.89175e-06	-0.012245704357102578
1.89200e-06	-0.01222944080402815
1.89225e-06	-0.012213177250953708
1.89250e-06	-0.01219691369787928
1.89275e-06	-0.01218065014480484
1.89300e-06	-0.01216438659173041
1.89325e-06	-0.012148123038655983
1.89350e-06	-0.012128635683762002
1.89375e-06	-0.012108922163904523
1.89400e-06	-0.012089208644047028
1.89425e-06	-0.012069495124189549
1.89450e-06	-0.012049781604332071
1.89475e-06	-0.012030068084474575
1.89500e-06	-0.01200960006445891
1.89525e-06	-0.011988149842920346
1.89550e-06	-0.011966699621381801
1.89575e-06	-0.011945249399843256
1.89600e-06	-0.011923799178304693
1.89625e-06	-0.011902348956766147
1.89650e-06	-0.011880898735227585
1.89675e-06	-0.011859756298852879
1.89700e-06	-0.011838635455064875
1.89725e-06	-0.011817514611276886
