Time(s)	Current(A)
8.55000e-06	0.009386663317508233
8.55025e-06	0.009394104422910218
8.55050e-06	0.009401545528312252
8.55075e-06	0.009408986633714285
8.55100e-06	0.00941642773911627
8.55125e-06	0.009426715136691407
8.55150e-06	0.009441909543019402
8.55175e-06	0.009457103949347293
8.55200e-06	0.009472298355675287
8.55225e-06	0.00948749276200328
8.55250e-06	0.009502687168331171
8.55275e-06	0.009517881574659165
8.55300e-06	0.00953307598098716
8.55325e-06	0.009548270387315051
8.55350e-06	0.009563464793643044
8.55375e-06	0.009578659199971038
8.55400e-06	0.009593853606298929
8.55425e-06	0.00961719169034504
8.55450e-06	0.009641777874561438
8.55475e-06	0.009666364058777669
8.55500e-06	0.009690950242994066
8.55525e-06	0.009715536427210463
8.55550e-06	0.00974012261142686
8.55575e-06	0.00976470879564309
8.55600e-06	0.009789294979859487
8.55625e-06	0.009813881164075885
8.55650e-06	0.009838467348292116
8.55675e-06	0.009863053532508513
8.55700e-06	0.009887639716724909
8.55725e-06	0.00991222590094114
8.55750e-06	0.009936812085157537
8.55775e-06	0.009954137529247467
8.55800e-06	0.009970350192195394
8.55825e-06	0.009986562855143433
8.55850e-06	0.01000277551809147
8.55875e-06	0.010018988181039397
8.55900e-06	0.010035200843987433
8.55925e-06	0.010051413506935471
8.55950e-06	0.010067626169883399
8.55975e-06	0.010083838832831435
8.56000e-06	0.010100051495779474
8.56025e-06	0.0101162641587274
8.56050e-06	0.010132476821675437
8.56075e-06	0.010148689484623474
8.56100e-06	0.010164902147571403
8.56125e-06	0.01015658854213303
8.56150e-06	0.010144516040428927
8.56175e-06	0.010132443538724905
8.56200e-06	0.010120371037020801
8.56225e-06	0.010108298535316697
8.56250e-06	0.010096226033612675
8.56275e-06	0.010084153531908573
8.56300e-06	0.01007208103020447
8.56325e-06	0.010060008528500447
8.56350e-06	0.010047936026796343
8.56375e-06	0.01003586352509224
8.56400e-06	0.010023791023388136
8.56425e-06	0.009993374203746084
8.56450e-06	0.009960145933657412
8.56475e-06	0.009926917663568742
8.56500e-06	0.009893689393480298
8.56525e-06	0.009860461123391626
8.56550e-06	0.009827232853302956
8.56575e-06	0.00979400458321451
8.56600e-06	0.00976077631312584
8.56625e-06	0.00972754804303717
8.56650e-06	0.009694319772948724
8.56675e-06	0.009661091502860054
8.56700e-06	0.009627863232771384
8.56725e-06	0.009594031830168461
8.56750e-06	0.009560107991466947
8.56775e-06	0.009526184152765434
8.56800e-06	0.00949226031406415
8.56825e-06	0.009458336475362638
8.56850e-06	0.009424412636661125
8.56875e-06	0.009390488797959841
8.56900e-06	0.009356564959258329
8.56925e-06	0.009322641120556816
8.56950e-06	0.009300284002750943
8.56975e-06	0.009279699600765932
8.57000e-06	0.009259115198780924
8.57025e-06	0.009238530796796053
8.57050e-06	0.009217946394811044
8.57075e-06	0.009197361992826034
8.57100e-06	0.009176777590841165
8.57125e-06	0.009156193188856155
8.57150e-06	0.009135608786871145
8.57175e-06	0.009130457343029029
8.57200e-06	0.009127671154587862
8.57225e-06	0.009124884966146695
8.57250e-06	0.009122098777705529
8.57275e-06	0.009119312589264381
8.57300e-06	0.009116526400823215
8.57325e-06	0.009113740212382048
8.57350e-06	0.0091109540239409
8.57375e-06	0.009108167835499734
8.57400e-06	0.009105381647058567
8.57425e-06	0.00910259545861742
8.57450e-06	0.009099809270176253
8.57475e-06	0.009097023081735087
8.57500e-06	0.00909423689329394
8.57525e-06	0.009091450704852773
8.57550e-06	0.009088664516411606
8.57575e-06	0.009085878327970458
8.57600e-06	0.00909039938540614
8.57625e-06	0.00909604035145691
8.57650e-06	0.009101681317507642
8.57675e-06	0.00910732228355841
8.57700e-06	0.00911296324960918
8.57725e-06	0.009118604215659912
8.57750e-06	0.00912424518171068
8.57775e-06	0.009129886147761451
8.57800e-06	0.009135527113812183
8.57825e-06	0.009141168079862953
8.57850e-06	0.009146809045913721
8.57875e-06	0.009152450011964453
8.57900e-06	0.009158090978015223
8.57925e-06	0.009163731944065992
8.57950e-06	0.009169372910116724
8.57975e-06	0.009175013876167494
8.58000e-06	0.009180654842218262
8.58025e-06	0.009176659492945601
8.58050e-06	0.009171187281838468
8.58075e-06	0.009165715070731335
8.58100e-06	0.009160242859624202
8.58125e-06	0.009154770648517106
8.58150e-06	0.009149298437409973
8.58175e-06	0.009143826226302838
8.58200e-06	0.009138354015195742
8.58225e-06	0.009132881804088609
8.58250e-06	0.009127409592981476
8.58275e-06	0.00912193738187438
8.58300e-06	0.009116465170767247
8.58325e-06	0.009110992959660114
8.58350e-06	0.009105520748553017
8.58375e-06	0.009100048537445882
8.58400e-06	0.00909032010642995
8.58425e-06	0.009073253950719524
8.58450e-06	0.00905618779500898
8.58475e-06	0.009039121639298438
8.58500e-06	0.009022055483588011
8.58525e-06	0.009004989327877468
8.58550e-06	0.008987923172166925
8.58575e-06	0.008970857016456498
8.58600e-06	0.008953790860745955
8.58625e-06	0.008936724705035412
8.58650e-06	0.008919658549324985
8.58675e-06	0.008902592393614442
8.58700e-06	0.0088855262379039
8.58725e-06	0.00886846008219347
8.58750e-06	0.00885139392648293
8.58775e-06	0.008834327770772386
8.58800e-06	0.00882049956261476
8.58825e-06	0.008807167602348908
8.58850e-06	0.008793835642083058
8.58875e-06	0.008780503681817299
8.58900e-06	0.008767171721551448
8.58925e-06	0.008753839761285598
8.58950e-06	0.008740507801019749
8.58975e-06	0.008727175840753987
8.59000e-06	0.008713843880488138
8.59025e-06	0.008700511920222288
8.59050e-06	0.008687179959956527
8.59075e-06	0.008673847999690678
8.59100e-06	0.008674670619856417
8.59125e-06	0.008677662571237567
8.59150e-06	0.008680654522618738
8.59175e-06	0.008683646473999908
8.59200e-06	0.008686638425381059
8.59225e-06	0.008689630376762228
8.59250e-06	0.008692622328143398
8.59275e-06	0.008695614279524548
8.59300e-06	0.008698606230905718
8.59325e-06	0.008701598182286888
8.59350e-06	0.008704590133668038
8.59375e-06	0.008707582085049207
8.59400e-06	0.008723499371724317
8.59425e-06	0.008741397595486197
8.59450e-06	0.008759295819248199
8.59475e-06	0.0087771940430102
8.59500e-06	0.00879509226677208
8.59525e-06	0.008812990490534082
8.59550e-06	0.008830888714296083
8.59575e-06	0.008848786938057962
8.59600e-06	0.008866685161819965
8.59625e-06	0.008884583385581965
8.59650e-06	0.008902481609343845
8.59675e-06	0.008920379833105847
8.59700e-06	0.008938278056867848
8.59725e-06	0.008956176280629728
8.59750e-06	0.008971440774365362
8.59775e-06	0.008986301622596338
8.59800e-06	0.009001162470827313
8.59825e-06	0.009016023319058188
8.59850e-06	0.009030884167289163
8.59875e-06	0.009045745015520138
8.59900e-06	0.009060605863751011
8.59925e-06	0.009075466711981986
8.59950e-06	0.009090327560212962
8.59975e-06	0.009105188408443836
8.60000e-06	0.009120049256674811
8.60025e-06	0.009134910104905787
8.60050e-06	0.00914977095313666
8.60075e-06	0.009164631801367635
8.60100e-06	0.009160284234717672
8.60125e-06	0.009152992786104706
8.60150e-06	0.009145701337491692
8.60175e-06	0.009138409888878677
8.60200e-06	0.009131118440265712
8.60225e-06	0.009123826991652697
8.60250e-06	0.009116535543039683
8.60275e-06	0.009109244094426719
8.60300e-06	0.009101952645813705
8.60325e-06	0.00909466119720069
8.60350e-06	0.009087369748587724
8.60375e-06	0.00908007829997471
8.60400e-06	0.009072786851361696
8.60425e-06	0.00906549540274873
8.60450e-06	0.009058203954135716
8.60475e-06	0.009037777384366662
8.60500e-06	0.009015337725724978
8.60525e-06	0.008992898067083142
8.60550e-06	0.008970458408441307
8.60575e-06	0.008948018749799624
8.60600e-06	0.008925579091157787
8.60625e-06	0.008903139432515953
8.60650e-06	0.008880699773874116
8.60675e-06	0.008858260115232434
8.60700e-06	0.008835820456590598
8.60725e-06	0.008813380797948763
8.60750e-06	0.00879094113930708
8.60775e-06	0.008768501480665243
8.60800e-06	0.008746061822023409
8.60825e-06	0.008723622163381725
8.60850e-06	0.008706369444771015
8.60875e-06	0.008689911676670336
8.60900e-06	0.008673453908569766
8.60925e-06	0.008656996140469084
8.60950e-06	0.008640538372368405
8.60975e-06	0.008624080604267835
8.61000e-06	0.008607622836167155
8.61025e-06	0.008591165068066474
8.61050e-06	0.008574707299965904
8.61075e-06	0.008558249531865224
8.61100e-06	0.008541791763764543
8.61125e-06	0.008525333995663974
8.61150e-06	0.008508876227563293
8.61175e-06	0.008492418459462612
8.61200e-06	0.008475960691362043
8.61225e-06	0.008459502923261362
8.61250e-06	0.008444199641911595
8.61275e-06	0.008430886696148415
8.61300e-06	0.008417573750385144
8.61325e-06	0.008404260804621875
8.61350e-06	0.008390947858858695
8.61375e-06	0.008377634913095424
8.61400e-06	0.008364321967332155
8.61425e-06	0.008351009021568975
8.61450e-06	0.008337696075805704
8.61475e-06	0.008324383130042435
8.61500e-06	0.008311070184279165
8.61525e-06	0.008297757238515984
8.61550e-06	0.008284444292752715
8.61575e-06	0.008271131346989445
8.61600e-06	0.008257818401226264
8.61625e-06	0.008244505455462995
8.61650e-06	0.008231192509699725
8.61675e-06	0.008222153477771929
8.61700e-06	0.008213769465945504
8.61725e-06	0.008205385454119078
8.61750e-06	0.00819700144229271
8.61775e-06	0.008188617430466285
8.61800e-06	0.008180233418639861
8.61825e-06	0.008171849406813491
8.61850e-06	0.008163465394987067
8.61875e-06	0.008155081383160642
8.61900e-06	0.008146697371334274
8.61925e-06	0.008138313359507848
8.61950e-06	0.008129929347681423
8.61975e-06	0.008121545335855055
8.62000e-06	0.00811316132402863
8.62025e-06	0.008104777312202204
8.62050e-06	0.008096393300375836
8.62075e-06	0.00808800928854941
8.62100e-06	0.008079625276722985
8.62125e-06	0.008071241264896617
8.62150e-06	0.008062857253070191
8.62175e-06	0.008054473241243766
8.62200e-06	0.008046089229417398
8.62225e-06	0.008037705217590972
8.62250e-06	0.008029321205764547
8.62275e-06	0.008020937193938179
8.62300e-06	0.008012553182111753
8.62325e-06	0.008006579273211557
8.62350e-06	0.008004760382651207
8.62375e-06	0.008002941492090871
8.62400e-06	0.008001122601530523
8.62425e-06	0.007999303710970174
8.62450e-06	0.007997484820409838
8.62475e-06	0.00799566592984949
8.62500e-06	0.007993847039289141
8.62525e-06	0.007992028148728805
8.62550e-06	0.007990209258168457
8.62575e-06	0.007988390367608109
8.62600e-06	0.007986571477047772
8.62625e-06	0.007984752586487424
8.62650e-06	0.007982933695927074
8.62675e-06	0.007981114805366738
8.62700e-06	0.00797929591480639
8.62725e-06	0.007977477024246041
8.62750e-06	0.007975658133685705
8.62775e-06	0.007973839243125357
8.62800e-06	0.007972020352565008
8.62825e-06	0.007970201462004672
8.62850e-06	0.007968382571444324
8.62875e-06	0.007966563680883975
8.62900e-06	0.00796474479032364
8.62925e-06	0.00796292589976329
8.62950e-06	0.00796110700920294
8.62975e-06	0.007959288118642605
8.63000e-06	0.00796565206608911
8.63025e-06	0.007973270115418096
8.63050e-06	0.007980888164747032
8.63075e-06	0.007988506214076018
8.63100e-06	0.007996124263405005
8.63125e-06	0.00800374231273394
8.63150e-06	0.008011360362062927
8.63175e-06	0.008018978411391915
8.63200e-06	0.008026596460720901
8.63225e-06	0.008034214510049837
8.63250e-06	0.008041832559378823
8.63275e-06	0.008064535029218348
8.63300e-06	0.008089549337584101
8.63325e-06	0.008114563645950026
8.63350e-06	0.00813957795431595
8.63375e-06	0.008164592262681705
8.63400e-06	0.008189606571047628
8.63425e-06	0.008214620879413551
8.63450e-06	0.008239635187779306
8.63475e-06	0.00826464949614523
8.63500e-06	0.008289663804511155
8.63525e-06	0.008314678112876908
8.63550e-06	0.008347152913739298
8.63575e-06	0.008380771109800081
8.63600e-06	0.008414389305860637
8.63625e-06	0.00844800750192142
8.63650e-06	0.008481625697982203
8.63675e-06	0.008515243894042759
8.63700e-06	0.00854886209010354
8.63725e-06	0.008582480286164323
8.63750e-06	0.008616098482224879
8.63775e-06	0.008647257300355093
8.63800e-06	0.008674176150017825
8.63825e-06	0.008701094999680373
8.63850e-06	0.008728013849343103
8.63875e-06	0.008754932699005834
8.63900e-06	0.008781851548668382
8.63925e-06	0.008808770398331112
8.63950e-06	0.008835689247993843
8.63975e-06	0.008862608097656391
8.64000e-06	0.00888952694731912
8.64025e-06	0.008907383630234795
8.64050e-06	0.008923851445330522
8.64075e-06	0.00894031926042614
8.64100e-06	0.008956787075521867
8.64125e-06	0.008973254890617595
8.64150e-06	0.008989722705713212
8.64175e-06	0.00900619052080894
8.64200e-06	0.009022658335904668
8.64225e-06	0.009039126151000285
8.64250e-06	0.009055593966096013
8.64275e-06	0.00907206178119174
8.64300e-06	0.009088529596287356
8.64325e-06	0.009104997411383086
8.64350e-06	0.009121465226478814
8.64375e-06	0.009137933041574429
8.64400e-06	0.009154400856670158
8.64425e-06	0.00916951841376845
8.64450e-06	0.009182308125576077
8.64475e-06	0.00919509783738379
8.64500e-06	0.009207887549191504
8.64525e-06	0.00922067726099913
8.64550e-06	0.009233466972806845
8.64575e-06	0.009246256684614557
8.64600e-06	0.009259046396422185
8.64625e-06	0.009271836108229898
8.64650e-06	0.00928462582003761
8.64675e-06	0.009297415531845238
8.64700e-06	0.00931020524365295
8.64725e-06	0.009322994955460665
8.64750e-06	0.00933578466726829
8.64775e-06	0.009348574379076005
8.64800e-06	0.009361364090883718
8.64825e-06	0.009374153802691344
8.64850e-06	0.009382598957057538
8.64875e-06	0.009390378264480637
8.64900e-06	0.009398157571903683
8.64925e-06	0.009405936879326783
8.64950e-06	0.009413716186749882
8.64975e-06	0.009421495494172982
8.65000e-06	0.009429274801596029
8.65025e-06	0.009437054109019127
8.65050e-06	0.009444833416442228
8.65075e-06	0.009452612723865274
8.65100e-06	0.009460392031288373
8.65125e-06	0.009468171338711473
8.65150e-06	0.00947595064613452
8.65175e-06	0.009483729953557618
8.65200e-06	0.009491509260980718
8.65225e-06	0.009499940705871138
8.65250e-06	0.009509496435998657
8.65275e-06	0.009519052166126175
8.65300e-06	0.00952860789625363
8.65325e-06	0.009538163626381149
8.65350e-06	0.009547719356508668
8.65375e-06	0.009557275086636122
8.65400e-06	0.009566830816763641
8.65425e-06	0.009576386546891162
8.65450e-06	0.009585942277018616
8.65475e-06	0.009595498007146135
8.65500e-06	0.009605053737273654
8.65525e-06	0.009614609467401109
8.65550e-06	0.009624165197528628
8.65575e-06	0.009633720927656146
8.65600e-06	0.009643276657783601
8.65625e-06	0.009652343946504632
8.65650e-06	0.009661336376687835
8.65675e-06	0.009670328806870977
8.65700e-06	0.009679321237054181
8.65725e-06	0.009688313667237384
8.65750e-06	0.009697306097420526
8.65775e-06	0.00970629852760373
8.65800e-06	0.009715290957786933
8.65825e-06	0.009724283387970135
8.65850e-06	0.009733275818153277
8.65875e-06	0.009742268248336482
8.65900e-06	0.009751260678519684
8.65925e-06	0.009760253108702826
8.65950e-06	0.009769245538886029
8.65975e-06	0.009778237969069233
8.66000e-06	0.009782081832952714
8.66025e-06	0.009777049566612763
8.66050e-06	0.009772017300272813
8.66075e-06	0.009766985033932897
8.66100e-06	0.009761952767592947
8.66125e-06	0.009756920501252996
8.66150e-06	0.00975188823491308
8.66175e-06	0.00974685596857313
8.66200e-06	0.00974182370223318
8.66225e-06	0.009736791435893262
8.66250e-06	0.009731759169553312
8.66275e-06	0.009726726903213363
8.66300e-06	0.009721694636873446
8.66325e-06	0.009716662370533495
8.66350e-06	0.009711630104193545
8.66375e-06	0.00970659783785363
8.66400e-06	0.009688923421260515
8.66425e-06	0.009669311468515119
8.66450e-06	0.009649699515769855
8.66475e-06	0.00963008756302446
8.66500e-06	0.009610475610279064
8.66525e-06	0.0095908636575338
8.66550e-06	0.009571251704788404
8.66575e-06	0.009551639752043008
8.66600e-06	0.009532027799297745
8.66625e-06	0.009512415846552349
8.66650e-06	0.009492803893806953
8.66675e-06	0.009472920803325654
8.66700e-06	0.00945257027128644
8.66725e-06	0.009432219739247088
8.66750e-06	0.009411869207207737
8.66775e-06	0.009391518675168522
8.66800e-06	0.00937116814312917
8.66825e-06	0.009350817611089818
8.66850e-06	0.009330467079050603
8.66875e-06	0.00931011654701125
8.66900e-06	0.0092897660149719
8.66925e-06	0.009269415482932685
8.66950e-06	0.009249064950893332
8.66975e-06	0.009229012242719202
8.67000e-06	0.009209005179035628
8.67025e-06	0.009188998115351918
8.67050e-06	0.009168991051668206
8.67075e-06	0.009148983987984631
8.67100e-06	0.009128976924300921
8.67125e-06	0.009108969860617211
8.67150e-06	0.009088962796933634
8.67175e-06	0.009068955733249924
8.67200e-06	0.009043819306283264
8.67225e-06	0.009009839855097717
8.67250e-06	0.008975860403911937
8.67275e-06	0.00894188095272616
8.67300e-06	0.00890790150154061
8.67325e-06	0.008873922050354833
8.67350e-06	0.008839942599169055
8.67375e-06	0.008805963147983506
8.67400e-06	0.008771983696797728
8.67425e-06	0.008738004245611948
8.67450e-06	0.008693648555584466
8.67475e-06	0.008647702603022698
8.67500e-06	0.008601756650460929
8.67525e-06	0.00855581069789916
8.67550e-06	0.008509864745337702
8.67575e-06	0.008463918792775934
8.67600e-06	0.008417972840214165
8.67625e-06	0.008372026887652708
8.67650e-06	0.00832608093509094
8.67675e-06	0.00828013498252917
8.67700e-06	0.008234189029967713
8.67725e-06	0.00819309770305674
8.67750e-06	0.008152750396152273
8.67775e-06	0.008112403089248078
8.67800e-06	0.00807205578234361
8.67825e-06	0.008031708475439143
8.67850e-06	0.007991361168534949
8.67875e-06	0.00795101386163048
8.67900e-06	0.007910666554726014
8.67925e-06	0.00787031924782182
8.67950e-06	0.00782997194091735
8.67975e-06	0.007789624634012883
8.68000e-06	0.007763626962410822
8.68025e-06	0.007739828516149709
8.68050e-06	0.0077160300698885945
8.68075e-06	0.0076922316236276425
8.68100e-06	0.007668433177366528
8.68125e-06	0.007644634731105415
8.68150e-06	0.007620836284844463
8.68175e-06	0.007597037838583349
8.68200e-06	0.007573239392322235
8.68225e-06	0.007549440946061282
8.68250e-06	0.007525642499800169
8.68275e-06	0.007501844053539056
8.68300e-06	0.007478045607278103
8.68325e-06	0.0074542471610169895
8.68350e-06	0.007430448714755875
8.68375e-06	0.007408982931017043
8.68400e-06	0.007391538658341339
8.68425e-06	0.007374094385665517
8.68450e-06	0.007356650112989695
8.68475e-06	0.007339205840313992
8.68500e-06	0.0073217615676381695
8.68525e-06	0.007304317294962348
8.68550e-06	0.007286873022286644
8.68575e-06	0.007269428749610823
8.68600e-06	0.0072519844769350006
8.68625e-06	0.007234540204259297
8.68650e-06	0.007217095931583475
8.68675e-06	0.007199651658907653
8.68700e-06	0.0071822073862319495
8.68725e-06	0.007164763113556127
8.68750e-06	0.007147318840880306
8.68775e-06	0.00713522474696808
8.68800e-06	0.007123950621541059
8.68825e-06	0.007112676496114037
8.68850e-06	0.007101402370687092
8.68875e-06	0.00709012824526007
8.68900e-06	0.007078854119833049
8.68925e-06	0.0070675799944061035
8.68950e-06	0.007056305868979082
8.68975e-06	0.00704503174355206
8.69000e-06	0.007033757618125115
8.69025e-06	0.007022483492698094
8.69050e-06	0.007030101379768172
8.69075e-06	0.007040614656984505
8.69100e-06	0.007051127934200909
8.69125e-06	0.007061641211417313
8.69150e-06	0.007072154488633646
8.69175e-06	0.00708266776585005
8.69200e-06	0.0070931810430664545
8.69225e-06	0.007103694320282858
8.69250e-06	0.007114207597499191
8.69275e-06	0.007124720874715595
8.69300e-06	0.007135234151931999
8.69325e-06	0.007166724594371882
8.69350e-06	0.007201429997499722
8.69375e-06	0.007236135400627563
8.69400e-06	0.007270840803755168
8.69425e-06	0.0073055462068830086
8.69450e-06	0.00734025161001085
8.69475e-06	0.007374957013138455
8.69500e-06	0.007417063152064707
8.69525e-06	0.007464561611575733
8.69550e-06	0.007512712665063662
8.69575e-06	0.007560863718551916
8.69600e-06	0.00760901477204017
8.69625e-06	0.007657165825528099
8.69650e-06	0.007705316879016354
8.69675e-06	0.007753467932504608
8.69700e-06	0.0078016189859925365
8.69725e-06	0.007849770039480791
8.69750e-06	0.007897921092969046
8.69775e-06	0.007938789198536517
8.69800e-06	0.007978541119385603
8.69825e-06	0.008018293040234688
8.69850e-06	0.008058044961083503
8.69875e-06	0.008097796881932587
8.69900e-06	0.008137548802781672
8.69925e-06	0.008177300723630487
8.69950e-06	0.008217052644479573
8.69975e-06	0.008256804565328658
8.70000e-06	0.008296556486177473
8.70025e-06	0.008311108634660034
8.70050e-06	0.008321798665612338
8.70075e-06	0.008332488696564642
8.70100e-06	0.008343178727516875
8.70125e-06	0.008353868758469178
8.70150e-06	0.008364558789421482
8.70175e-06	0.008375248820373715
