Time(s)	Current(A)
1.00000e-06	0.003938866710639242
1.00025e-06	0.0039581382504682286
1.00050e-06	0.003971626750536814
1.00075e-06	0.00398511525060541
1.00100e-06	0.003995682894299354
1.00125e-06	0.004000199498345384
1.00150e-06	0.004004716102391411
1.00175e-06	0.004006038466678645
1.00200e-06	0.004000743432180665
1.00225e-06	0.003995448397682688
1.00250e-06	0.003990153363184708
1.00275e-06	0.003981825668109217
1.00300e-06	0.003967215312389293
1.00325e-06	0.003952604956669356
1.00350e-06	0.003937994600949432
1.00375e-06	0.003921636764488803
1.00400e-06	0.0039016587311100828
1.00425e-06	0.0038809396064152265
1.00450e-06	0.003858272990372415
1.00475e-06	0.0038344345358171062
1.00500e-06	0.0038096994063732082
1.00525e-06	0.0037842916246593142
1.00550e-06	0.0037583889002114033
1.00575e-06	0.003732163608937548
1.00600e-06	0.0037057878126833875
1.00625e-06	0.003679436150476184
1.00650e-06	0.003653305731081387
1.00675e-06	0.0036276455249952292
1.00700e-06	0.0036027291739157267
1.00725e-06	0.0035787982000287863
1.00750e-06	0.003556065454000809
1.00775e-06	0.0035347399419503748
1.00800e-06	0.0035150306645637245
1.00825e-06	0.0034971401904376354
1.00850e-06	0.0034812126181106877
1.00875e-06	0.0034672521151568815
1.00900e-06	0.003455180519585917
1.00925e-06	0.0034449843790205917
1.00950e-06	0.0034367172225276527
1.00975e-06	0.003430441140089483
1.01000e-06	0.0034262181404567647
1.01025e-06	0.0034241062204410705
1.01050e-06	0.0034244490694403363
1.01075e-06	0.0034268812183439446
1.01100e-06	0.0034308463355177416
1.01125e-06	0.003437987251358606
1.01150e-06	0.00344512816719947
1.01175e-06	0.00345441604377731
1.01200e-06	0.0034681517065091685
1.01225e-06	0.0034818873692410383
1.01250e-06	0.0034956230319728963
1.01275e-06	0.0035093586947047544
1.01300e-06	0.0035284009376924407
1.01325e-06	0.003548564485354012
1.01350e-06	0.0035687280330156004
1.01375e-06	0.0035888915806771716
1.01400e-06	0.003610313087747508
1.01425e-06	0.003634340666901086
1.01450e-06	0.003658368246054663
1.01475e-06	0.00368299676332368
1.01500e-06	0.003708870223820145
1.01525e-06	0.0037347436843166324
1.01550e-06	0.0037608235467414893
1.01575e-06	0.0037873310050806244
1.01600e-06	0.0038138384634197817
1.01625e-06	0.0038402438830531004
1.01650e-06	0.003866437912540792
1.01675e-06	0.003892319951452896
1.01700e-06	0.003917555650011286
1.01725e-06	0.003942102596780368
1.01750e-06	0.003965222679695197
1.01775e-06	0.003988342762610046
1.01800e-06	0.004010325297768706
1.01825e-06	0.004029951213604023
1.01850e-06	0.004049577129439324
1.01875e-06	0.0040685938702845915
1.01900e-06	0.004084726270179709
1.01925e-06	0.004097497736128359
1.01950e-06	0.004110269202077019
1.01975e-06	0.004123040668025668
1.02000e-06	0.004135812133974318
1.02025e-06	0.0041485835999229784
1.02050e-06	0.004161355065871628
1.02075e-06	0.0041741265318202886
1.02100e-06	0.004186897997768938
1.02125e-06	0.004199669463717587
1.02150e-06	0.004212440929666247
1.02175e-06	0.004225212395614897
1.02200e-06	0.004237983861563557
1.02225e-06	0.004250755327512207
1.02250e-06	0.0042635267934608674
1.02275e-06	0.004276298259409517
1.02300e-06	0.004289069725358166
1.02325e-06	0.004301841191306827
1.02350e-06	0.004310094841033616
1.02375e-06	0.0043173938555338305
1.02400e-06	0.00432469287003404
1.02425e-06	0.00433199188453425
1.02450e-06	0.004339290899034465
1.02475e-06	0.004346589913534675
1.02500e-06	0.0043538889280348905
1.02525e-06	0.0043611879425351
1.02550e-06	0.004368486957035309
1.02575e-06	0.004375785971535525
1.02600e-06	0.004383084986035735
1.02625e-06	0.0043903840005359495
1.02650e-06	0.004397683015036159
1.02675e-06	0.004404982029536375
1.02700e-06	0.004412281044036585
1.02725e-06	0.004419580058536794
1.02750e-06	0.0044268790730370095
1.02775e-06	0.004433764902517417
1.02800e-06	0.0044397947505267705
1.02825e-06	0.004445922076641122
1.02850e-06	0.004452251344858209
1.02875e-06	0.004459748910145622
1.02900e-06	0.004469666797073346
1.02925e-06	0.004481174198668223
1.02950e-06	0.004495974544193368
1.02975e-06	0.004512497028173415
1.03000e-06	0.0045325872083121785
1.03025e-06	0.004552677388450926
1.03050e-06	0.004576241627796261
1.03075e-06	0.004607002958438742
1.03100e-06	0.004637764289081249
1.03125e-06	0.00466852561972373
1.03150e-06	0.0046992869503662115
1.03175e-06	0.004730048281008719
1.03200e-06	0.0047718265241654
1.03225e-06	0.0048159326913139
1.03250e-06	0.004860038858462364
1.03275e-06	0.004904145025610827
1.03300e-06	0.004948251192759328
1.03325e-06	0.004995139411393691
1.03350e-06	0.005047791112267904
1.03375e-06	0.005100442813142075
1.03400e-06	0.005154237771998445
1.03425e-06	0.005210401179860678
1.03450e-06	0.005266564587722865
1.03475e-06	0.005323414637622857
1.03500e-06	0.005381687180675689
1.03525e-06	0.00543995972372857
1.03550e-06	0.00549822509109923
1.03575e-06	0.00555647559285113
1.03600e-06	0.005614726094603079
1.03625e-06	0.005672082162732049
1.03650e-06	0.00572758526288888
1.03675e-06	0.005783088363045664
1.03700e-06	0.005836818015732358
1.03725e-06	0.0058868736771041695
1.03750e-06	0.00593692933847594
1.03775e-06	0.005986984999847752
1.03800e-06	0.006029463774210869
1.03825e-06	0.006070341517701978
1.03850e-06	0.006111219261193122
1.03875e-06	0.006150415982021831
1.03900e-06	0.006186130184892787
1.03925e-06	0.0062218443877637124
1.03950e-06	0.006256177657704567
1.03975e-06	0.006287650095465611
1.04000e-06	0.0063191225332266555
1.04025e-06	0.006350594970987726
1.04050e-06	0.006382067408748771
1.04075e-06	0.006413539846509842
1.04100e-06	0.006442113685367397
1.04125e-06	0.006470075037022145
1.04150e-06	0.0064980363886769175
1.04175e-06	0.006525997740331666
1.04200e-06	0.006553959091986438
1.04225e-06	0.006580987464516427
1.04250e-06	0.006606083015658097
1.04275e-06	0.006631178566799787
1.04300e-06	0.006656274117941457
1.04325e-06	0.006681369669083149
1.04350e-06	0.006706465220224818
1.04375e-06	0.006731560771366488
1.04400e-06	0.006756656322508179
1.04425e-06	0.006781751873649849
1.04450e-06	0.00680684742479154
1.04475e-06	0.00683194297593321
1.04500e-06	0.006853813529166401
1.04525e-06	0.006875002625594501
1.04550e-06	0.006896191722022602
1.04575e-06	0.006917380818450719
1.04600e-06	0.00693856991487882
1.04625e-06	0.006959759011306937
1.04650e-06	0.006980948107735037
1.04675e-06	0.007002137204163137
1.04700e-06	0.007023326300591255
1.04725e-06	0.007044515397019355
1.04750e-06	0.007064356945093157
1.04775e-06	0.007081406822687072
1.04800e-06	0.007098456700280987
1.04825e-06	0.0071142276388600064
1.04850e-06	0.007127349042613764
1.04875e-06	0.007140470446367532
1.04900e-06	0.007149664983318575
1.04925e-06	0.007150724362747201
1.04950e-06	0.007151783742175826
1.04975e-06	0.007152843121604451
1.05000e-06	0.007153902501033077
1.05025e-06	0.007154961880461702
1.05050e-06	0.007150332005119491
1.05075e-06	0.007133915892537602
1.05100e-06	0.007117499779955713
1.05125e-06	0.007101083667373811
1.05150e-06	0.007084667554791922
1.05175e-06	0.007068251442210019
1.05200e-06	0.0070463935503748965
1.05225e-06	0.007013262107983939
1.05250e-06	0.006980130665592953
1.05275e-06	0.006946999223201996
1.05300e-06	0.00691386778081101
1.05325e-06	0.0068807363384200525
1.05350e-06	0.006847604896029067
1.05375e-06	0.0068050554024934404
1.05400e-06	0.006760515831685032
1.05425e-06	0.006715976260876587
1.05450e-06	0.00667143669006818
1.05475e-06	0.006626897119259734
1.05500e-06	0.0065823575484513265
1.05525e-06	0.0065368092384348745
1.05550e-06	0.006489171157420678
1.05575e-06	0.006441533076406522
1.05600e-06	0.006394370207470898
1.05625e-06	0.006348191819372023
1.05650e-06	0.006302013431273147
1.05675e-06	0.006256788044513008
1.05700e-06	0.006213536958486578
1.05725e-06	0.006172109932312364
1.05750e-06	0.006134461749417857
1.05775e-06	0.006096813566523318
1.05800e-06	0.006059165383628811
1.05825e-06	0.006028502176053531
1.05850e-06	0.005999314925703307
1.05875e-06	0.005970127675353107
1.05900e-06	0.0059417581206968224
1.05925e-06	0.005915082558632967
1.05950e-06	0.005888406996569111
1.05975e-06	0.005861731434505233
1.06000e-06	0.005835055872441377
1.06025e-06	0.005810287081009043
1.06050e-06	0.005785921198930239
1.06075e-06	0.005761555316851435
1.06100e-06	0.0057371894347726105
1.06125e-06	0.005712519364409219
1.06150e-06	0.005687219117435364
1.06175e-06	0.00566191887046153
1.06200e-06	0.005636618623487675
1.06225e-06	0.005611318376513841
1.06250e-06	0.005586018129540007
1.06275e-06	0.005560717882566152
1.06300e-06	0.0055354176355923174
1.06325e-06	0.005509736034492155
1.06350e-06	0.005483973851521315
1.06375e-06	0.005458211668550475
1.06400e-06	0.005432449485579612
1.06425e-06	0.005406687302608772
1.06450e-06	0.00538092511963791
1.06475e-06	0.0053551629366670695
1.06500e-06	0.0053298472428329365
1.06525e-06	0.005305456525485453
1.06550e-06	0.005281065808137989
1.06575e-06	0.005256675090790506
1.06600e-06	0.005232284373443043
1.06625e-06	0.00520789365609556
1.06650e-06	0.005185016098093209
1.06675e-06	0.005165273301274794
1.06700e-06	0.005145530504456362
1.06725e-06	0.005125787707637946
1.06750e-06	0.005106044910819514
1.06775e-06	0.005086302114001099
1.06800e-06	0.0050679657041211796
1.06825e-06	0.005056651559432274
1.06850e-06	-0.00019610185386457666
1.06875e-06	-0.00956207646117266
1.06900e-06	-0.008526388581509479
1.06925e-06	-0.006492299570071788
1.06950e-06	-0.0012530404841136823
1.06975e-06	0.00586831676318887
1.07000e-06	0.006797476224732202
1.07025e-06	0.006117207476915869
1.07050e-06	0.002976384728476973
1.07075e-06	-0.0026255600462501715
1.07100e-06	-0.0029469700308378073
1.07125e-06	-0.0011748730088516717
1.07150e-06	0.0022244950079446948
1.07175e-06	0.006017370647559906
1.07200e-06	0.007735646904649383
1.07225e-06	0.007177917685727416
1.07250e-06	0.004884475159613303
1.07275e-06	0.0021308146733128664
1.07300e-06	0.001195517713702113
1.07325e-06	0.0021232555187647908
1.07350e-06	0.004192311322745966
1.07375e-06	0.006533413953935214
1.07400e-06	0.007610705238329951
1.07425e-06	0.007267411611991857
1.07450e-06	0.005839349576898399
1.07475e-06	0.004125000318901288
1.07500e-06	0.003551136015433185
1.07525e-06	0.004145195763321999
1.07550e-06	0.00545461861488614
1.07575e-06	0.0069344991367575924
1.07600e-06	0.007622482367041712
1.07625e-06	0.007420146935948194
1.07650e-06	0.006537647120216498
1.07675e-06	0.005474936841754937
1.07700e-06	0.0051254835656864995
1.07725e-06	0.005506187949829435
1.07750e-06	0.0063333025520744
1.07775e-06	0.007265275152486431
1.07800e-06	0.00769911530565462
1.07825e-06	0.007573035702958836
1.07850e-06	0.0070184324176241885
1.07875e-06	0.006348051947911902
1.07900e-06	0.006121207741449436
1.07925e-06	0.006348415077334824
1.07950e-06	0.006852046180443583
1.07975e-06	0.0074183151971258165
1.08000e-06	0.007669700458212669
1.08025e-06	0.0075677105009622
1.08050e-06	0.007194864318365501
1.08075e-06	0.006747266618895834
1.08100e-06	0.006575446705385433
1.08125e-06	0.006686154013389282
1.08150e-06	0.00696829004732446
1.08175e-06	0.007288118355718156
1.08200e-06	0.00740935777676766
1.08225e-06	0.007308106703860157
1.08250e-06	0.007036263662492982
1.08275e-06	0.006716869213201029
1.08300e-06	0.006569680675523797
1.08325e-06	0.006599101205140009
1.08350e-06	0.006735718497532817
1.08375e-06	0.006895946533086571
1.08400e-06	0.006931976196503197
1.08425e-06	0.006829040097136841
1.08450e-06	0.006619851572540856
1.08475e-06	0.006381682409225093
1.08500e-06	0.006252377911610919
1.08525e-06	0.006234879005199396
1.08550e-06	0.006285890695457453
1.08575e-06	0.0063532448715703845
1.08600e-06	0.006344549530333663
1.08625e-06	0.006250755847831441
1.08650e-06	0.006092555575129871
1.08675e-06	0.005918548796829976
1.08700e-06	0.005815272317161859
1.08725e-06	0.0057847559129291844
1.08750e-06	0.005800068238131648
1.08775e-06	0.005828721356459342
1.08800e-06	0.005813036797699579
1.08825e-06	0.005747537722420029
1.08850e-06	0.005644958778200333
1.08875e-06	0.005534682851235923
1.08900e-06	0.005469706854683602
1.08925e-06	0.005450734983778842
1.08950e-06	0.005460789531413275
1.08975e-06	0.005479501282880157
1.09000e-06	0.005470723580619392
1.09025e-06	0.005431011461123614
1.09050e-06	0.005368326301529946
1.09075e-06	0.005301058017158361
1.09100e-06	0.005262385157650277
1.09125e-06	0.005252728607390529
1.09150e-06	0.005261433869580806
1.09175e-06	0.005275723634212552
1.09200e-06	0.005272938950883339
1.09225e-06	0.005250905675064122
1.09250e-06	0.005214595295205807
1.09275e-06	0.0051755104031955615
1.09300e-06	0.005154416119056677
1.09325e-06	0.005151557459372202
1.09350e-06	0.00516024097420796
1.09375e-06	0.005172445324117909
1.09400e-06	0.005173959847361315
1.09425e-06	0.00516340652715161
1.09450e-06	0.005143883304260366
1.09475e-06	0.005122577979896403
1.09500e-06	0.005112479998993998
1.09525e-06	0.005113724777244733
1.09550e-06	0.005122101942784944
1.09575e-06	0.00513256841499328
1.09600e-06	0.005136205353623527
1.09625e-06	0.005132133258560469
1.09650e-06	0.005122345037338437
1.09675e-06	0.005111144486394816
1.09700e-06	0.0051067816295059945
1.09725e-06	0.005109330108011295
1.09750e-06	0.005116154184095811
1.09775e-06	0.00512395936576302
1.09800e-06	0.00512722699666618
1.09825e-06	0.005125403224620111
1.09850e-06	0.005120283344281048
1.09875e-06	0.005116426847961483
1.09900e-06	0.005120681276663767
1.09925e-06	0.005133715010131875
1.09950e-06	0.005155246308146952
1.09975e-06	0.005179090261532921
1.10000e-06	0.005204533893255981
1.10025e-06	0.00523056855016807
1.10050e-06	0.005259662810795206
1.10075e-06	0.00528988748797049
1.10100e-06	0.005331286621345732
1.10125e-06	0.00537681432540581
1.10150e-06	0.00543145113414719
1.10175e-06	0.005489453438432955
1.10200e-06	0.005551008392153557
1.10225e-06	0.0056138759255691655
1.10250e-06	0.005682515040846371
1.10275e-06	0.005753286553732319
1.10300e-06	0.005824058066618208
1.10325e-06	0.00590279221120703
1.10350e-06	0.005988567009751778
1.10375e-06	0.006075856149380188
1.10400e-06	0.0061647291558796094
1.10425e-06	0.006254649788666324
1.10450e-06	0.0063451697176506875
1.10475e-06	0.006436897957495624
1.10500e-06	0.006531006386767817
1.10525e-06	0.006627147080978674
1.10550e-06	0.006724370571819751
1.10575e-06	0.0068216145223158695
1.10600e-06	0.0069174425131192105
1.10625e-06	0.0070111948936391845
1.10650e-06	0.007102577967112452
1.10675e-06	0.00719171987208453
1.10700e-06	0.007279101303994248
1.10725e-06	0.007364251455967196
1.10750e-06	0.007446323216406359
1.10775e-06	0.007524397031942089
1.10800e-06	0.007597321174164021
1.10825e-06	0.00766212668843341
1.10850e-06	0.00772447896763456
1.10875e-06	0.007775888068748557
1.10900e-06	0.007823254048350537
1.10925e-06	0.007870620027952475
1.10950e-06	0.007904361057454954
1.10975e-06	0.007933068144494902
1.11000e-06	0.007961775231534874
1.11025e-06	0.007969396283280345
1.11050e-06	0.007969226782571765
1.11075e-06	0.007969057281863185
1.11100e-06	0.007968887781154605
1.11125e-06	0.007968718280446025
1.11150e-06	0.007960880505361631
1.11175e-06	0.00792740140611504
1.11200e-06	0.007893922306868419
1.11225e-06	0.007860443207621828
1.11250e-06	0.007826964108375209
1.11275e-06	0.007793485009128618
1.11300e-06	0.007744540420625581
1.11325e-06	0.0076898818748234975
1.11350e-06	0.00763522332902146
1.11375e-06	0.007572417514394995
1.11400e-06	0.007506601568928636
1.11425e-06	0.00744078562346222
1.11450e-06	0.007369135076957016
1.11475e-06	0.0072953288494617425
1.11500e-06	0.007221522621966407
1.11525e-06	0.007145302397289374
1.11550e-06	0.0070681902850950095
1.11575e-06	0.006990585297196658
1.11600e-06	0.006912798208966405
1.11625e-06	0.006835772111302261
1.11650e-06	0.006759027173033004
1.11675e-06	0.006684626072106239
1.11700e-06	0.006611090937090394
1.11725e-06	0.00654154675215283
1.11750e-06	0.0064734770836660585
1.11775e-06	0.006410857100525233
1.11800e-06	0.0063502505854901485
1.11825e-06	0.0062965711928028145
1.11850e-06	0.006245451129512771
1.11875e-06	0.006202523445896997
1.11900e-06	0.006162622560002102
1.11925e-06	0.006131432771881814
1.11950e-06	0.006103461429675812
1.11975e-06	0.006086699793605494
1.12000e-06	0.006074079751837738
1.12025e-06	0.006061459710069982
1.12050e-06	0.006062665350349081
1.12075e-06	0.0060689790965232585
1.12100e-06	0.00607529284269744
1.12125e-06	0.006094912022676204
1.12150e-06	0.006119447095022733
1.12175e-06	0.006143982167369282
1.12200e-06	0.006180594026255383
1.12225e-06	0.006221667835322826
1.12250e-06	0.006262741644390234
1.12275e-06	0.006312880920759465
1.12300e-06	0.006366369570187401
1.12325e-06	0.006426073655968855
1.12350e-06	0.006488074128067496
1.12375e-06	0.006555245119625157
1.12400e-06	0.006624326437258606
1.12425e-06	0.006696634994151901
1.12450e-06	0.006771942490586875
1.12475e-06	0.006849443519428378
1.12500e-06	0.006928725347465652
1.12525e-06	0.007009338506160787
1.12550e-06	0.007090822153326707
1.12575e-06	0.007172714138564696
1.12600e-06	0.00725455002002734
1.12625e-06	0.0073358714027191
1.12650e-06	0.007416219343956058
1.12675e-06	0.007495119829093452
1.12700e-06	0.007572076691090163
1.12725e-06	0.007646570819872235
1.12750e-06	0.007718076609475926
1.12775e-06	0.007786066288118802
1.12800e-06	0.00785001133023965
1.12825e-06	0.007909386610592796
1.12850e-06	0.007961431872851076
1.12875e-06	0.008011238538480224
1.12900e-06	0.008049463616822534
1.12925e-06	0.00808340970378555
1.12950e-06	0.008117355790748598
1.12975e-06	0.008136816534494528
1.13000e-06	0.008150925450618235
1.13025e-06	0.008165034366741956
1.13050e-06	0.008158012816783673
1.13075e-06	0.008143184298750631
1.13100e-06	0.008128355780717604
1.13125e-06	0.008113527262684574
1.13150e-06	0.008098698744651533
1.13175e-06	0.00807607457809659
1.13200e-06	0.008027383171250506
1.13225e-06	0.007978691764404465
1.13250e-06	0.00793000035755838
1.13275e-06	0.007881308950712337
1.13300e-06	0.007832617543866294
1.13325e-06	0.007768538803495333
1.13350e-06	0.007698774981635178
1.13375e-06	0.007629011159774965
1.13400e-06	0.007551647406511054
1.13425e-06	0.007471475744438714
1.13450e-06	0.007391304082366305
1.13475e-06	0.007306272462966359
1.13500e-06	0.007219445259334884
1.13525e-06	0.007132618055703483
1.13550e-06	0.007044108716088615
1.13575e-06	0.006954977886068827
1.13600e-06	0.006866325310397356
1.13625e-06	0.006777849432978166
1.13650e-06	0.0066913989533729885
1.13675e-06	0.006605696787411651
1.13700e-06	0.0065224887527297
1.13725e-06	0.006442435879437465
1.13750e-06	0.00636744676104781
1.13775e-06	0.006294023617571563
1.13800e-06	0.006227731105314474
1.13825e-06	0.0061640731118637136
1.13850e-06	0.006108744870825976
1.13875e-06	0.006056494181930348
1.13900e-06	0.006012289829166772
1.13925e-06	0.005971058316143361
1.13950e-06	0.00594028923329498
1.13975e-06	0.0059133856524207756
1.14000e-06	0.005886482071546548
1.14025e-06	0.005872947056998318
1.14050e-06	0.005864351260075468
1.14075e-06	0.0058557554631526254
1.14100e-06	0.005864406704325413
1.14125e-06	0.005879430122773603
1.14150e-06	0.005894453541221791
1.14175e-06	0.005909476959669993
1.14200e-06	0.005924500378118183
1.14225e-06	0.005945539793413675
1.14250e-06	0.005986695615311438
1.14275e-06	0.006027851437209202
1.14300e-06	0.006069007259107
1.14325e-06	0.006110163081004764
1.14350e-06	0.006151318902902563
1.14375e-06	0.006202318483060867
1.14400e-06	0.006256954987561972
1.14425e-06	0.006315572921258747
1.14450e-06	0.006375661853772937
1.14475e-06	0.00643863510374827
1.14500e-06	0.006502674008132049
1.14525e-06	0.006568090550263436
1.14550e-06	0.0066345771333787724
1.14575e-06	0.006701569553276291
1.14600e-06	0.006768708319442246
1.14625e-06	0.006835633941362722
1.14650e-06	0.006901957005749309
1.14675e-06	0.006967220938692206
1.14700e-06	0.007030940276615237
1.14725e-06	0.007091729367633712
1.14750e-06	0.007151602931802523
1.14775e-06	0.0072057984794521605
1.14800e-06	0.007257896198614863
1.14825e-06	0.007309993917777566
1.14850e-06	0.007356188859579137
1.14875e-06	0.0074002029316248205
1.14900e-06	0.007442890880699914
1.14925e-06	0.0074850888737250975
1.14950e-06	0.007525579965136968
1.14975e-06	0.007565440416110081
1.15000e-06	0.007605300867083194
1.15025e-06	0.007642110781848516
1.15050e-06	0.007677793630192763
1.15075e-06	0.007713476478537039
