Time(s)	Current(A)
1.25000e-05	0.015052817584559187
1.25003e-05	0.015043072440059006
1.25005e-05	0.015033327295558889
1.25008e-05	0.015023582151058708
1.25010e-05	0.015013837006558525
1.25012e-05	0.015004091862058408
1.25015e-05	0.014994346717558227
1.25018e-05	0.014984601573058044
1.25020e-05	0.014974856428557863
1.25023e-05	0.014965111284057746
1.25025e-05	0.014955366139557563
1.25028e-05	0.014945489195582388
1.25030e-05	0.014934663788535923
1.25033e-05	0.014923838381489385
1.25035e-05	0.014913012974442847
1.25038e-05	0.014902187567396382
1.25040e-05	0.014891362160349845
1.25043e-05	0.014880536753303307
1.25045e-05	0.014869711346256842
1.25048e-05	0.014858885939210304
1.25050e-05	0.014848060532163766
1.25053e-05	0.014837235125117301
1.25055e-05	0.014826409718070763
1.25058e-05	0.014815584311024225
1.25060e-05	0.014804920187986572
1.25063e-05	0.014795416706343031
1.25065e-05	0.014785913224699491
1.25068e-05	0.014776409743056015
1.25070e-05	0.014766906261412475
1.25073e-05	0.014757402779768935
1.25075e-05	0.014747899298125458
1.25078e-05	0.014738395816481918
1.25080e-05	0.014728892334838376
1.25083e-05	0.0147193888531949
1.25085e-05	0.01470988537155136
1.25088e-05	0.01470038188990782
1.25090e-05	0.014690878408264343
1.25093e-05	0.014681374926620803
1.25095e-05	0.014671640821181442
1.25097e-05	0.014660247087326713
1.25100e-05	0.01464885335347191
1.25103e-05	0.014637459619617104
1.25105e-05	0.0146260658857623
1.25108e-05	0.014614672151907572
1.25110e-05	0.014603278418052767
1.25113e-05	0.014591884684197963
1.25115e-05	0.014580490950343234
1.25118e-05	0.014569097216488431
1.25120e-05	0.014557703482633626
1.25123e-05	0.014546309748778899
1.25125e-05	0.014534916014924093
1.25128e-05	0.014523522281069288
1.25130e-05	0.014512237334699751
1.25133e-05	0.014501735251178611
1.25135e-05	0.01449123316765747
1.25138e-05	0.014480731084136401
1.25140e-05	0.01447022900061526
1.25143e-05	0.01445972691709412
1.25145e-05	0.014449224833573053
1.25148e-05	0.014438722750051912
1.25150e-05	0.014428220666530772
1.25153e-05	0.014417718583009703
1.25155e-05	0.014408110312018104
1.25158e-05	0.014399045210212619
1.25160e-05	0.014389980108407193
1.25163e-05	0.014380915006601708
1.25165e-05	0.014371849904796221
1.25168e-05	0.014362784802990797
1.25170e-05	0.01435371970118531
1.25173e-05	0.014344654599379824
1.25175e-05	0.0143355894975744
1.25178e-05	0.014326093610292853
1.25180e-05	0.01431349767943175
1.25182e-05	0.014300901748570733
1.25185e-05	0.01428830581770963
1.25188e-05	0.01427570988684853
1.25190e-05	0.014263113955987427
1.25193e-05	0.01425051802512641
1.25195e-05	0.014237922094265307
1.25198e-05	0.014225326163404205
1.25200e-05	0.014212730232543188
1.25203e-05	0.014200134301682087
1.25205e-05	0.014187538370820985
1.25208e-05	0.014174942439959967
1.25210e-05	0.014162346509098865
1.25213e-05	0.014149750578237762
1.25215e-05	0.014137154647376747
1.25218e-05	0.014124558716515644
1.25220e-05	0.014111962785654542
1.25223e-05	0.01409942020303243
1.25225e-05	0.01408726152812011
1.25228e-05	0.01407510285320779
1.25230e-05	0.014062944178295551
1.25233e-05	0.014050785503383232
1.25235e-05	0.014038626828470912
1.25238e-05	0.014026468153558673
1.25240e-05	0.014014309478646353
1.25243e-05	0.014002150803734034
1.25245e-05	0.013989992128821795
1.25248e-05	0.013977833453909475
1.25250e-05	0.013965674778997154
1.25253e-05	0.013953516104084917
1.25255e-05	0.013941357429172596
1.25258e-05	0.013929198754260276
1.25260e-05	0.013917040079348039
1.25263e-05	0.013904881404435718
1.25265e-05	0.013892722729523398
1.25267e-05	0.013881119131618169
1.25270e-05	0.013873510011262965
1.25273e-05	0.013865900890907763
1.25275e-05	0.013858291770552561
1.25278e-05	0.01385068265019741
1.25280e-05	0.013843073529842206
1.25283e-05	0.013835464409487004
1.25285e-05	0.013827855289131852
1.25288e-05	0.01382024616877665
1.25290e-05	0.013812637048421448
1.25293e-05	0.013805027928066297
1.25295e-05	0.013797418807711095
1.25298e-05	0.013789809687355891
1.25300e-05	0.013782437538555766
1.25303e-05	0.013776770698289092
1.25305e-05	0.013771103858022417
1.25308e-05	0.013765437017755781
1.25310e-05	0.013759770177489108
1.25313e-05	0.013754103337222432
1.25315e-05	0.013748436496955797
1.25318e-05	0.013742769656689123
1.25320e-05	0.01373710281642245
1.25323e-05	0.013731435976155814
1.25325e-05	0.013725769135889139
1.25328e-05	0.013720102295622465
1.25330e-05	0.01371443545535583
1.25333e-05	0.013708768615089155
1.25335e-05	0.013703101774822481
1.25338e-05	0.013697434934555846
1.25340e-05	0.013691768094289172
1.25343e-05	0.013686101254022497
1.25345e-05	0.013680434413755861
1.25348e-05	0.013674767573489188
1.25350e-05	0.013669100733222514
1.25352e-05	0.013663433892955879
1.25355e-05	0.013657767052689203
1.25358e-05	0.01365210021242253
1.25360e-05	0.01364545452154957
1.25363e-05	0.013638213983916332
1.25365e-05	0.013630973446283045
1.25368e-05	0.013623732908649757
1.25370e-05	0.01361649237101652
1.25373e-05	0.013609251833383233
1.25375e-05	0.013602011295749946
1.25378e-05	0.013594770758116707
1.25380e-05	0.01358753022048342
1.25383e-05	0.013580289682850133
1.25385e-05	0.013573049145216894
1.25388e-05	0.013565808607583609
1.25390e-05	0.013558568069950322
1.25393e-05	0.013551327532317083
1.25395e-05	0.013544086994683796
1.25398e-05	0.013536846457050508
1.25400e-05	0.01352960591941727
1.25403e-05	0.013522365381783983
1.25405e-05	0.013515124844150695
1.25408e-05	0.013507884306517459
1.25410e-05	0.013500643768884171
1.25413e-05	0.013493403231250884
1.25415e-05	0.013486162693617645
1.25418e-05	0.01347861744528455
1.25420e-05	0.01346887942002905
1.25423e-05	0.013459141394773614
1.25425e-05	0.013449403369518113
1.25428e-05	0.013439665344262611
1.25430e-05	0.013429927319007176
1.25433e-05	0.013420189293751675
1.25435e-05	0.013410451268496174
1.25437e-05	0.013400864467601427
1.25440e-05	0.013392365916277417
1.25443e-05	0.013383867364953407
1.25445e-05	0.013375368813629397
1.25448e-05	0.013366870262305444
1.25450e-05	0.013358371710981434
1.25453e-05	0.013349873159657424
1.25455e-05	0.013341374608333472
1.25458e-05	0.013333979736812631
1.25460e-05	0.013334527230310162
1.25463e-05	0.013335074723807691
1.25465e-05	0.013335622217305223
1.25468e-05	0.013336169710802754
1.25470e-05	0.013336717204300281
1.25473e-05	0.013337264697797814
1.25475e-05	0.013337812191295345
1.25478e-05	0.013348990179695496
1.25480e-05	0.013366628311671656
1.25483e-05	0.013384266443647815
1.25485e-05	0.013401904575623855
1.25488e-05	0.013419542707600015
1.25490e-05	0.013437180839576174
1.25493e-05	0.013454818971552214
1.25495e-05	0.013474649346853355
1.25498e-05	0.013510255671526054
1.25500e-05	0.013545861996198512
1.25503e-05	0.01358146832087121
1.25505e-05	0.01361707464554391
1.25508e-05	0.013652680970216368
1.25510e-05	0.013688287294889067
1.25513e-05	0.013723893619561766
1.25515e-05	0.013759499944234223
1.25518e-05	0.013795106268906922
1.25520e-05	0.013830712593579621
1.25522e-05	0.01386684593418691
1.25525e-05	0.013906771817626364
1.25528e-05	0.013946697701065817
1.25530e-05	0.013986623584505272
1.25533e-05	0.014026549467944457
1.25535e-05	0.01406647535138391
1.25538e-05	0.014106401234823365
1.25540e-05	0.014146327118262548
1.25543e-05	0.014186253001702002
1.25545e-05	0.014226178885141456
1.25548e-05	0.01426610476858064
1.25550e-05	0.014303648166882777
1.25553e-05	0.01432404658657185
1.25555e-05	0.014344445006260784
1.25558e-05	0.014364843425949859
1.25560e-05	0.014385241845638932
1.25563e-05	0.014405640265327868
1.25565e-05	0.014426038685016941
1.25568e-05	0.014446437104706014
1.25570e-05	0.01446683552439495
1.25573e-05	0.014487233944084023
1.25575e-05	0.014507632363773098
1.25578e-05	0.014525166764488338
1.25580e-05	0.014522090944687135
1.25583e-05	0.014519015124885933
1.25585e-05	0.014515939305084753
1.25588e-05	0.01451286348528355
1.25590e-05	0.014509787665482348
1.25593e-05	0.014506711845681166
1.25595e-05	0.014503636025879963
1.25598e-05	0.01450056020607876
1.25600e-05	0.014497484386277579
1.25603e-05	0.014494408566476377
1.25605e-05	0.014489558089544193
1.25607e-05	0.014471936721374529
1.25610e-05	0.014454315353204744
1.25613e-05	0.014436693985034959
1.25615e-05	0.014419072616865175
1.25618e-05	0.01440145124869551
1.25620e-05	0.014383829880525724
1.25623e-05	0.01436620851235594
1.25625e-05	0.014348587144186275
1.25628e-05	0.01433096577601649
1.25630e-05	0.0143131118686121
1.25633e-05	0.014293584548793498
1.25635e-05	0.014274057228974762
1.25638e-05	0.014254529909156027
1.25640e-05	0.014235002589337424
1.25643e-05	0.01421547526951869
1.25645e-05	0.014195947949699955
1.25648e-05	0.014176420629881352
1.25650e-05	0.014156893310062616
1.25653e-05	0.01413736599024388
1.25655e-05	0.014118122660314808
1.25658e-05	0.01410092299500681
1.25660e-05	0.014083723329698811
1.25663e-05	0.014066523664390929
1.25665e-05	0.01404932399908293
1.25668e-05	0.014032124333774931
1.25670e-05	0.014014924668467049
1.25673e-05	0.01399772500315905
1.25675e-05	0.01397576396797974
1.25678e-05	0.013950909451990288
1.25680e-05	0.013926054936000666
1.25683e-05	0.013901200420011046
1.25685e-05	0.013876345904021592
1.25688e-05	0.01385149138803197
1.25690e-05	0.01382663687204235
1.25692e-05	0.013800554808182545
1.25695e-05	0.013765638992675881
1.25698e-05	0.013730723177169219
1.25700e-05	0.013695807361662557
1.25703e-05	0.01366089154615613
1.25705e-05	0.013625975730649467
1.25708e-05	0.013591059915142804
1.25710e-05	0.013556144099636378
1.25713e-05	0.013521228284129716
1.25715e-05	0.013486312468623054
1.25718e-05	0.013451396653116628
1.25720e-05	0.013414666669788822
1.25723e-05	0.013376834218070628
1.25725e-05	0.013339001766352691
1.25728e-05	0.013301169314634495
1.25730e-05	0.013263336862916301
1.25733e-05	0.013225504411198364
1.25735e-05	0.01318767195948017
1.25738e-05	0.013149839507761977
1.25740e-05	0.013112007056044038
1.25743e-05	0.013074174604325844
1.25745e-05	0.01303824076878147
1.25748e-05	0.013015969865790327
1.25750e-05	0.012993698962799033
1.25753e-05	0.012971428059807737
1.25755e-05	0.012949157156816594
1.25758e-05	0.012926886253825298
1.25760e-05	0.012904615350834004
1.25763e-05	0.01288234444784286
1.25765e-05	0.012860073544851565
1.25768e-05	0.01283780264186027
1.25770e-05	0.012815531738869125
1.25773e-05	0.012793260835877831
1.25775e-05	0.012770989932886537
1.25777e-05	0.012748719029895392
1.25780e-05	0.012726448126904098
1.25783e-05	0.012704177223912802
1.25785e-05	0.012681906320921508
1.25788e-05	0.012659635417930365
1.25790e-05	0.012645575788387348
1.25793e-05	0.012636506143408279
1.25795e-05	0.012627436498429272
1.25798e-05	0.012618366853450204
1.25800e-05	0.012609297208471135
1.25803e-05	0.012600227563492128
1.25805e-05	0.012591157918513061
1.25808e-05	0.012582088273533992
1.25810e-05	0.012573018628554986
1.25813e-05	0.012563948983575917
1.25815e-05	0.01255487933859685
1.25818e-05	0.012545809693617842
1.25820e-05	0.012536740048638775
1.25823e-05	0.012527670403659706
1.25825e-05	0.0125186007586807
1.25828e-05	0.01250953111370163
1.25830e-05	0.012500461468722563
1.25833e-05	0.012491830232691943
1.25835e-05	0.012486353900732768
1.25838e-05	0.012480877568773594
1.25840e-05	0.012475401236814457
1.25843e-05	0.012469924904855283
1.25845e-05	0.012464448572896109
1.25848e-05	0.012459164461250317
1.25850e-05	0.012455263616646535
1.25853e-05	0.012451362772042755
1.25855e-05	0.012447461927439
1.25858e-05	0.012443561082835218
1.25860e-05	0.012439660238231438
1.25862e-05	0.012437341788176088
1.25865e-05	0.012446410658161735
1.25868e-05	0.012455479528147384
1.25870e-05	0.01246454839813303
1.25873e-05	0.012473617268118617
1.25875e-05	0.012482686138104266
1.25878e-05	0.012491755008089913
1.25880e-05	0.012500823878075499
1.25883e-05	0.012512274670219614
1.25885e-05	0.012540866389675656
1.25888e-05	0.012569458109131505
1.25890e-05	0.012598049828587546
1.25893e-05	0.012626641548043587
1.25895e-05	0.012655233267499434
1.25898e-05	0.012683824986955475
1.25900e-05	0.012712416706411517
1.25903e-05	0.01274309449028389
1.25905e-05	0.012788784132713242
1.25908e-05	0.012834473775142595
1.25910e-05	0.012880163417571637
1.25913e-05	0.012925853060000988
1.25915e-05	0.01297154270243034
1.25918e-05	0.013017232344859382
1.25920e-05	0.013062921987288733
1.25923e-05	0.013108611629718086
1.25925e-05	0.013154301272147128
1.25928e-05	0.01319999091457648
1.25930e-05	0.013245680557005831
1.25933e-05	0.013291370199434873
1.25935e-05	0.013331661516640949
1.25938e-05	0.013368672275756168
1.25940e-05	0.013405683034871135
1.25943e-05	0.013442693793986354
1.25945e-05	0.013479704553101574
1.25947e-05	0.013516715312216543
1.25950e-05	0.013553726071331762
1.25953e-05	0.013590736830446981
1.25955e-05	0.013627747589561949
1.25958e-05	0.013664758348677168
1.25960e-05	0.013701769107792387
1.25963e-05	0.013738779866907606
1.25965e-05	0.013771765328802199
1.25968e-05	0.013775783711793266
1.25970e-05	0.013779802094784334
1.25973e-05	0.013783820477775375
1.25975e-05	0.013787838860766443
1.25978e-05	0.01379185724375751
1.25980e-05	0.013795875626748551
1.25983e-05	0.013799894009739619
1.25985e-05	0.013803912392730688
1.25988e-05	0.01379012097659889
1.25990e-05	0.013765506559221211
1.25993e-05	0.013740892141843531
1.25995e-05	0.013716277724466019
1.25998e-05	0.013691663307088339
1.26000e-05	0.01366704888971066
1.26003e-05	0.013642434472333147
1.26005e-05	0.013617820054955468
1.26008e-05	0.013590898976229865
1.26010e-05	0.013547378566420245
1.26013e-05	0.01350385815661033
1.26015e-05	0.013460337746800414
1.26018e-05	0.013416817336990792
1.26020e-05	0.013373296927180877
1.26023e-05	0.013329776517370962
1.26025e-05	0.013286256107561342
1.26028e-05	0.013242735697751425
1.26030e-05	0.01319921528794151
1.26032e-05	0.013156036414765301
1.26035e-05	0.013113065093138589
1.26038e-05	0.013070093771511875
1.26040e-05	0.013027122449885452
1.26043e-05	0.01298415112825874
1.26045e-05	0.012941179806632026
1.26048e-05	0.012898208485005313
1.26050e-05	0.01285523716337889
1.26053e-05	0.012812265841752176
1.26055e-05	0.012772144112643612
1.26058e-05	0.012752528787617722
1.26060e-05	0.0127329134625917
1.26063e-05	0.012713298137565675
1.26065e-05	0.012693682812539785
1.26068e-05	0.012674067487513763
1.26070e-05	0.012654452162487739
1.26073e-05	0.01263483683746185
1.26075e-05	0.012615221512435826
1.26078e-05	0.012595606187409803
1.26080e-05	0.012575990862383913
1.26083e-05	0.01255637553735789
1.26085e-05	0.012536760212331867
1.26088e-05	0.012517144887305976
1.26090e-05	0.012497529562279954
1.26093e-05	0.01247791423725393
1.26095e-05	0.012458298912228041
1.26098e-05	0.012438683587202017
1.26100e-05	0.012419068262175995
1.26103e-05	0.012399452937150104
1.26105e-05	0.012389528286274447
1.26108e-05	0.012385492650638045
1.26110e-05	0.012381457015001669
1.26113e-05	0.012377421379365266
1.26115e-05	0.012373385743728864
1.26117e-05	0.012369350108092488
1.26120e-05	0.012365314472456085
1.26123e-05	0.012361278836819681
1.26125e-05	0.012357243201183307
1.26128e-05	0.012353207565546902
1.26130e-05	0.0123491719299105
1.26133e-05	0.012345136294274096
1.26135e-05	0.012341100658637721
1.26138e-05	0.012337065023001317
1.26140e-05	0.012333029387364915
1.26143e-05	0.012328993751728539
1.26145e-05	0.012324958116092136
1.26148e-05	0.012320922480455734
1.26150e-05	0.012316886844819358
1.26153e-05	0.01231354473599333
1.26155e-05	0.012315193425303088
1.26158e-05	0.012316842114612836
1.26160e-05	0.012318490803922597
1.26163e-05	0.012320139493232355
1.26165e-05	0.012321788182542103
1.26168e-05	0.012323436871851862
1.26170e-05	0.01232508556116162
1.26173e-05	0.012336142754405957
1.26175e-05	0.012352917488267275
1.26178e-05	0.012369692222128593
1.26180e-05	0.012386466955989796
1.26183e-05	0.012403241689851114
1.26185e-05	0.012420016423712432
1.26188e-05	0.012436791157573636
1.26190e-05	0.012455881201202229
1.26193e-05	0.012491632812196568
1.26195e-05	0.012527384423190666
1.26198e-05	0.012563136034185005
1.26200e-05	0.012598887645179344
1.26202e-05	0.01263463925617344
1.26205e-05	0.012670390867167779
1.26208e-05	0.012706142478162118
1.26210e-05	0.012741894089156214
1.26213e-05	0.012777645700150553
1.26215e-05	0.012813397311144892
1.26218e-05	0.01285455562001872
1.26220e-05	0.012898999575042503
1.26223e-05	0.012943443530066587
1.26225e-05	0.01298788748509067
1.26228e-05	0.013032331440114453
1.26230e-05	0.013076775395138535
1.26233e-05	0.01312121935016262
1.26235e-05	0.013165663305186402
1.26238e-05	0.013210107260210486
1.26240e-05	0.01325455121523457
1.26243e-05	0.013297345154879847
1.26245e-05	0.01332826515748936
1.26248e-05	0.013359185160098873
1.26250e-05	0.013390105162708174
1.26253e-05	0.013421025165317688
1.26255e-05	0.0134519451679272
1.26258e-05	0.013482865170536502
1.26260e-05	0.013513785173146015
1.26263e-05	0.013544705175755527
1.26265e-05	0.013575625178364829
1.26268e-05	0.013604124307221207
1.26270e-05	0.013615202202981744
1.26273e-05	0.013626280098742205
1.26275e-05	0.01363735799450274
1.26278e-05	0.013648435890263277
1.26280e-05	0.013659513786023737
1.26283e-05	0.013670591681784274
1.26285e-05	0.013681669577544811
1.26288e-05	0.013692747473305272
1.26290e-05	0.013703825369065809
1.26293e-05	0.013713035260629489
1.26295e-05	0.013708802511286595
1.26298e-05	0.013704569761943675
1.26300e-05	0.013700337012600755
1.26303e-05	0.013696104263257835
1.26305e-05	0.013691871513914941
1.26308e-05	0.013687638764572022
1.26310e-05	0.013683406015229101
1.26313e-05	0.013679173265886208
1.26315e-05	0.013674940516543287
1.26318e-05	0.013670707767200368
1.26320e-05	0.013666475017857475
1.26323e-05	0.013662242268514554
1.26325e-05	0.013654363288465303
1.26328e-05	0.013644268496814587
1.26330e-05	0.013634173705163805
1.26333e-05	0.013624078913513022
1.26335e-05	0.013613984121862308
1.26338e-05	0.013603889330211524
1.26340e-05	0.01359379453856074
1.26343e-05	0.013583699746910026
1.26345e-05	0.013573604955259243
1.26348e-05	0.01356351016360846
1.26350e-05	0.013553415371957745
1.26353e-05	0.013543320580306962
1.26355e-05	0.013532970234117541
1.26358e-05	0.013520780851430414
1.26360e-05	0.013508591468743203
1.26363e-05	0.013496402086055992
1.26365e-05	0.013484212703368862
1.26368e-05	0.013472023320681651
1.26370e-05	0.01345983393799444
1.26373e-05	0.013447644555307312
1.26375e-05	0.01343397822464785
1.26378e-05	0.013409683394720465
1.26380e-05	0.013385388564793245
1.26383e-05	0.01336109373486586
1.26385e-05	0.013336798904938475
1.26388e-05	0.01331250407501109
1.26390e-05	0.01328820924508387
1.26393e-05	0.013263914415156485
1.26395e-05	0.013237878799885198
1.26398e-05	0.013199316043439786
1.26400e-05	0.013160753286994113
1.26403e-05	0.01312219053054844
1.26405e-05	0.013083627774103029
1.26408e-05	0.013045065017657356
1.26410e-05	0.013006502261211684
1.26413e-05	0.012967939504766272
1.26415e-05	0.0129293767483206
1.26418e-05	0.012890813991874927
1.26420e-05	0.012852251235429515
1.26423e-05	0.012813688478983842
1.26425e-05	0.01277512572253817
1.26428e-05	0.012736562966092758
1.26430e-05	0.012700002060991594
1.26433e-05	0.012664657679416363
1.26435e-05	0.012629313297841371
1.26438e-05	0.01259396891626614
1.26440e-05	0.012558624534690909
1.26443e-05	0.012523280153115917
1.26445e-05	0.012487935771540686
1.26448e-05	0.012452591389965455
1.26450e-05	0.012417247008390463
1.26453e-05	0.012381902626815232
1.26455e-05	0.01234655824524
1.26458e-05	0.012311213863665009
1.26460e-05	0.012275869482089778
1.26463e-05	0.012243653246663034
1.26465e-05	0.012233947959283904
1.26468e-05	0.01222424267190471
1.26470e-05	0.012214537384525515
1.26473e-05	0.012204832097146321
1.26475e-05	0.012195126809767191
1.26478e-05	0.012185421522387998
1.26480e-05	0.012175716235008802
1.26483e-05	0.012166010947629674
1.26485e-05	0.012156305660250478
1.26488e-05	0.012146600372871285
1.26490e-05	0.012136895085492155
1.26493e-05	0.012127189798112961
1.26495e-05	0.012117484510733766
1.26498e-05	0.012107779223354638
1.26500e-05	0.012098073935975442
1.26503e-05	0.012088368648596248
1.26505e-05	0.012078663361217119
1.26508e-05	0.012068958073837925
1.26510e-05	0.012068696669816605
1.26513e-05	0.012074174306466375
1.26515e-05	0.012079651943116181
1.26518e-05	0.012085129579765985
