Time(s)	Current(A)
9.80000e-06	-0.007849409539299084
9.80025e-06	-0.00785193808008915
9.80050e-06	-0.007854466620879233
9.80075e-06	-0.007856995161669315
9.80100e-06	-0.00785952370245938
9.80125e-06	-0.007862052243249464
9.80150e-06	-0.007864580784039546
9.80175e-06	-0.007867109324829612
9.80200e-06	-0.007869637865619694
9.80225e-06	-0.007872166406409777
9.80250e-06	-0.00787469494719986
9.80275e-06	-0.007875338353960723
9.80300e-06	-0.00787165040123093
9.80325e-06	-0.007867962448501136
9.80350e-06	-0.007864274495771368
9.80375e-06	-0.007860586543041575
9.80400e-06	-0.007856898590311781
9.80425e-06	-0.007853210637582013
9.80450e-06	-0.00784952268485222
9.80475e-06	-0.007845834732122426
9.80500e-06	-0.007842146779392658
9.80525e-06	-0.007838458826662864
9.80550e-06	-0.007833541945609038
9.80575e-06	-0.007825801429589597
9.80600e-06	-0.007818060913570101
9.80625e-06	-0.007810320397550606
9.80650e-06	-0.007802579881531164
9.80675e-06	-0.007794839365511669
9.80700e-06	-0.007787098849492174
9.80725e-06	-0.007779358333472731
9.80750e-06	-0.007771617817453237
9.80775e-06	-0.007763877301433742
9.80800e-06	-0.007755844639622308
9.80825e-06	-0.007747740417628937
9.80850e-06	-0.007739636195635566
9.80875e-06	-0.00773153197364225
9.80900e-06	-0.007723427751648879
9.80925e-06	-0.0077153235296555074
9.80950e-06	-0.007707219307662192
9.80975e-06	-0.00769911508566882
9.81000e-06	-0.00769101086367545
9.81025e-06	-0.007683364895652478
9.81050e-06	-0.007676771830316132
9.81075e-06	-0.007669937577506109
9.81100e-06	-0.007662549162691041
9.81125e-06	-0.007653641488021629
9.81150e-06	-0.007641243101026631
9.81175e-06	-0.007628844714031634
9.81200e-06	-0.007614774677555899
9.81225e-06	-0.007596863792241753
9.81250e-06	-0.007578952906927606
9.81275e-06	-0.007559239940733595
9.81300e-06	-0.007535386441291256
9.81325e-06	-0.007511532941848917
9.81350e-06	-0.0074849432699930635
9.81375e-06	-0.007452066858747134
9.81400e-06	-0.007419190447501206
9.81425e-06	-0.0073863140362555
9.81450e-06	-0.007353437625009571
9.81475e-06	-0.007313598396972156
9.81500e-06	-0.007272053649123132
9.81525e-06	-0.0072305089012738265
9.81550e-06	-0.00718896415342452
9.81575e-06	-0.007145569501418308
9.81600e-06	-0.007097924435484842
9.81625e-06	-0.007050279369551376
9.81650e-06	-0.007001975344984916
9.81675e-06	-0.006952157270654229
9.81700e-06	-0.006902038206218127
9.81725e-06	-0.006851051202983536
9.81750e-06	-0.006799564490870252
9.81775e-06	-0.006747858602999641
9.81800e-06	-0.006696237940643488
9.81825e-06	-0.006645006580621704
9.81850e-06	-0.006594466057966886
9.81875e-06	-0.006544883543082946
9.81900e-06	-0.006496432284003226
9.81925e-06	-0.006449244884767566
9.81950e-06	-0.006403544153159665
9.81975e-06	-0.006359636795181032
9.82000e-06	-0.006317844258329783
9.82025e-06	-0.006278488314555751
9.82050e-06	-0.0062418784504982726
9.82075e-06	-0.0062081609283701975
9.82100e-06	-0.0061770210226224104
9.82125e-06	-0.006147878831454758
9.82150e-06	-0.006120480570258497
9.82175e-06	-0.006094920605029552
9.82200e-06	-0.0060717028866725045
9.82225e-06	-0.006050746266098507
9.82250e-06	-0.00603120577466909
9.82275e-06	-0.006014919038314968
9.82300e-06	-0.005999982862379542
9.82325e-06	-0.005988149788187336
9.82350e-06	-0.00597631671399521
9.82375e-06	-0.0059664328996426865
9.82400e-06	-0.005961027782816377
9.82425e-06	-0.005955622665990102
9.82450e-06	-0.005950217549163792
9.82475e-06	-0.005944812432337482
9.82500e-06	-0.005941437102971863
9.82525e-06	-0.005942725494621589
9.82550e-06	-0.005944013886271316
9.82575e-06	-0.005945302277921033
9.82600e-06	-0.00594659066957076
9.82625e-06	-0.005949085309251453
9.82650e-06	-0.005954351472749581
9.82675e-06	-0.005959617636247744
9.82700e-06	-0.005965474106558206
9.82725e-06	-0.0059726868894576955
9.82750e-06	-0.0059798996723572344
9.82775e-06	-0.0059874148810018435
9.82800e-06	-0.005995624955158366
9.82825e-06	-0.0060038350293148334
9.82850e-06	-0.0060121835367968396
9.82875e-06	-0.006020850114235353
9.82900e-06	-0.006029516691673808
9.82925e-06	-0.006037998321059795
9.82950e-06	-0.006046055006388279
9.82975e-06	-0.006054111691716708
9.83000e-06	-0.006061240605480241
9.83025e-06	-0.006068142264551687
9.83050e-06	-0.006074696870664209
9.83075e-06	-0.0060804540739898385
9.83100e-06	-0.006086437425874544
9.83125e-06	-0.006092940385751752
9.83150e-06	-0.006100039959841976
9.83175e-06	-0.0061085103386581035
9.83200e-06	-0.006116980717474174
9.83225e-06	-0.006125963878557439
9.83250e-06	-0.006136125228728211
9.83275e-06	-0.006146286578898913
9.83300e-06	-0.006157688557141525
9.83325e-06	-0.006171941052162153
9.83350e-06	-0.006186193547182684
9.83375e-06	-0.006200446042203312
9.83400e-06	-0.00621469853722394
9.83425e-06	-0.006228951032244472
9.83450e-06	-0.006244678682383502
9.83475e-06	-0.0062637957080419904
9.83500e-06	-0.006282912733700349
9.83525e-06	-0.006302029759358837
9.83550e-06	-0.006321146785017325
9.83575e-06	-0.006340263810675684
9.83600e-06	-0.006360331883382012
9.83625e-06	-0.0063825851199004685
9.83650e-06	-0.006404838356418925
9.83675e-06	-0.006427091592937231
9.83700e-06	-0.0064493448294556865
9.83725e-06	-0.006471598065974143
9.83750e-06	-0.006493851302492449
9.83775e-06	-0.006515880229435535
9.83800e-06	-0.006537854212462003
9.83825e-06	-0.006559828195488321
9.83850e-06	-0.006581802178514789
9.83875e-06	-0.006603776161541257
9.83900e-06	-0.006625750144567576
9.83925e-06	-0.006646870119291312
9.83950e-06	-0.00666602789031244
9.83975e-06	-0.006685185661333437
9.84000e-06	-0.00670333278905961
9.84025e-06	-0.006719157822247477
9.84050e-06	-0.006734982855435235
9.84075e-06	-0.00674934127673807
9.84100e-06	-0.006760329951795958
9.84125e-06	-0.006771318626853771
9.84150e-06	-0.006780545560155718
9.84175e-06	-0.0067857246449931664
9.84200e-06	-0.00679090372983058
9.84225e-06	-0.006794267318795233
9.84250e-06	-0.006793459551682179
9.84275e-06	-0.006792651784569131
9.84300e-06	-0.006789230896413672
9.84325e-06	-0.006779805996624252
9.84350e-06	-0.006770381096834896
9.84375e-06	-0.006760956197045476
9.84400e-06	-0.0067515312972560556
9.84425e-06	-0.0067421063974667
9.84450e-06	-0.006724907971343845
9.84475e-06	-0.006705805444684507
9.84500e-06	-0.006686702918025168
9.84525e-06	-0.006667600391365958
9.84550e-06	-0.006648497864706619
9.84575e-06	-0.006627650734106854
9.84600e-06	-0.006602795131574397
9.84625e-06	-0.006577939529041772
9.84650e-06	-0.006552384793499104
9.84675e-06	-0.006525223701933203
9.84700e-06	-0.006497675976115156
9.84725e-06	-0.006469239903944422
9.84750e-06	-0.006440595616943894
9.84775e-06	-0.006411472927205024
9.84800e-06	-0.006382316982401752
9.84825e-06	-0.00635312840467393
9.84850e-06	-0.006324133040765711
9.84875e-06	-0.00629549073858852
9.84900e-06	-0.00626735757873358
9.84925e-06	-0.006239892778663332
9.84950e-06	-0.006213270342700631
9.84975e-06	-0.006189148474545554
9.85000e-06	-0.006169221431077794
9.85025e-06	-0.006149294387610034
9.85050e-06	-0.006129367344142408
9.85075e-06	-0.006109440300674648
9.85100e-06	-0.006089513257206888
9.85125e-06	-0.006069586213739263
9.85150e-06	-0.006049659170271503
9.85175e-06	-0.006029732126803743
9.85200e-06	-0.006011695499204965
9.85225e-06	-0.00599800236687068
9.85250e-06	-0.005984309234536395
9.85275e-06	-0.005970616102202202
9.85300e-06	-0.005956922969867917
9.85325e-06	-0.005943229837533631
9.85350e-06	-0.005929536705199346
9.85375e-06	-0.005915843572865153
9.85400e-06	-0.005902150440530868
9.85425e-06	-0.005889293845264478
9.85450e-06	-0.005878359311092335
9.85475e-06	-0.005867424776920117
9.85500e-06	-0.0058564902427479006
9.85525e-06	-0.005845555708575758
9.85550e-06	-0.005834621174403541
9.85575e-06	-0.0058236866402313235
9.85600e-06	-0.0058127521060591806
9.85625e-06	-0.0058030883142118
9.85650e-06	-0.005793735786652997
9.85675e-06	-0.005784383259094257
9.85700e-06	-0.005775030731535453
9.85725e-06	-0.00576567820397665
9.85750e-06	-0.005756325676417909
9.85775e-06	-0.0057469731488591054
9.85800e-06	-0.005737951675113309
9.85825e-06	-0.005729690843876525
9.85850e-06	-0.005721430012639686
9.85875e-06	-0.005713425666676554
9.85900e-06	-0.005706010631557944
9.85925e-06	-0.005698595596439285
9.85950e-06	-0.0056913143817708236
9.85975e-06	-0.005684423246453885
9.86000e-06	-0.005677817796773638
9.86025e-06	-0.005671541522470207
9.86050e-06	-0.005665648702429688
9.86075e-06	-0.005660331593532116
9.86100e-06	-0.00565614683684292
9.86125e-06	-0.005653793427609257
9.86150e-06	-0.005653590400170479
9.86175e-06	-0.005655512180311748
9.86200e-06	-0.005659471647342417
9.86225e-06	-0.005665382089082512
9.86250e-06	-0.0056734651700974074
9.86275e-06	-0.005683515072000083
9.86300e-06	-0.005694977431573897
9.86325e-06	-0.005709685110502868
9.86350e-06	-0.00572619296396842
9.86375e-06	-0.0057468369705980646
9.86400e-06	-0.005767480977227849
9.86425e-06	-0.00579048090159125
9.86450e-06	-0.005818893876961942
9.86475e-06	-0.005847306852332826
9.86500e-06	-0.00587571982770371
9.86525e-06	-0.0059041328030744016
9.86550e-06	-0.005934938956913361
9.86575e-06	-0.0059712437735170215
9.86600e-06	-0.006007548590120436
9.86625e-06	-0.006043853406724096
9.86650e-06	-0.006080158223327757
9.86675e-06	-0.006117531579515958
9.86700e-06	-0.006157360055080676
9.86725e-06	-0.006197188530645394
9.86750e-06	-0.006237306346451574
9.86775e-06	-0.006278088961993986
9.86800e-06	-0.006318871577536397
9.86825e-06	-0.006359284833573601
9.86850e-06	-0.0063988494344088456
9.86875e-06	-0.006438414035244089
9.86900e-06	-0.006477263711032484
9.86925e-06	-0.0065144707463803036
9.86950e-06	-0.00655080820768786
9.86975e-06	-0.006585147700828205
9.87000e-06	-0.006618290294071884
9.87025e-06	-0.006648682842141242
9.87050e-06	-0.006677550175983622
9.87075e-06	-0.006702913116488769
9.87100e-06	-0.006726485014067774
9.87125e-06	-0.006745941739635353
9.87150e-06	-0.006763017939192777
9.87175e-06	-0.006774624546778948
9.87200e-06	-0.00678623115436512
9.87225e-06	-0.006794875637108179
9.87250e-06	-0.006796714223090903
9.87275e-06	-0.006798552809073627
9.87300e-06	-0.006797389448862319
9.87325e-06	-0.006789328696758556
9.87350e-06	-0.006781267944654794
9.87375e-06	-0.006769763712614719
9.87400e-06	-0.006750347603059421
9.87425e-06	-0.006730931493504124
9.87450e-06	-0.006711515383948958
9.87475e-06	-0.0066920992743936605
9.87500e-06	-0.006663404285509017
9.87525e-06	-0.006632436464659543
9.87550e-06	-0.00660146864380986
9.87575e-06	-0.006570500822960176
9.87600e-06	-0.006537588730140685
9.87625e-06	-0.006500209400116562
9.87650e-06	-0.006461960849078434
9.87675e-06	-0.006421715141000561
9.87700e-06	-0.0063809671473003295
9.87725e-06	-0.006338821352761571
9.87750e-06	-0.006295945679914127
9.87775e-06	-0.006252584234452529
9.87800e-06	-0.006208982419875481
9.87825e-06	-0.006165385357260759
9.87850e-06	-0.006122037942415
9.87875e-06	-0.006079186044498199
9.87900e-06	-0.006037078780511018
9.87925e-06	-0.005995977248557056
9.87950e-06	-0.005956155188534531
9.87975e-06	-0.0059178920963964
9.88000e-06	-0.005881468342267751
9.88025e-06	-0.005847163746551874
9.88050e-06	-0.0058152631981087345
9.88075e-06	-0.005786104064063751
9.88100e-06	-0.005760147239663554
9.88125e-06	-0.005737838480893073
9.88150e-06	-0.005719388300727262
9.88175e-06	-0.005704832235757578
9.88200e-06	-0.005694176847272091
9.88225e-06	-0.005687428570469113
9.88250e-06	-0.005684597764198207
9.88275e-06	-0.00568572658324026
9.88300e-06	-0.00569157113465209
9.88325e-06	-0.00570179496104561
9.88350e-06	-0.0057150486226993326
9.88375e-06	-0.005735263755283416
9.88400e-06	-0.005755478887867636
9.88425e-06	-0.005779692551653105
9.88450e-06	-0.005813093400988602
9.88475e-06	-0.005846494250324325
9.88500e-06	-0.005879895099660049
9.88525e-06	-0.005913295948995546
9.88550e-06	-0.005957023075882736
9.88575e-06	-0.006003279591597594
9.88600e-06	-0.006049536107312138
9.88625e-06	-0.0060957926230269955
9.88650e-06	-0.006144189355920934
9.88675e-06	-0.006197503537586152
9.88700e-06	-0.006250817719251731
9.88725e-06	-0.006305018702633943
9.88750e-06	-0.006361257237183434
9.88775e-06	-0.006417495771733306
9.88800e-06	-0.006473821033043415
9.88825e-06	-0.006530345561233908
9.88850e-06	-0.006586464674180653
9.88875e-06	-0.006641652288815286
9.88900e-06	-0.006696051666637496
9.88925e-06	-0.006748639959966021
9.88950e-06	-0.006800012148775295
9.88975e-06	-0.006848590167097882
9.89000e-06	-0.006894978317073004
9.89025e-06	-0.0069363349377622365
9.89050e-06	-0.00697769155845147
9.89075e-06	-0.007015921261686547
9.89100e-06	-0.007046966434050067
9.89125e-06	-0.007078011606413586
9.89150e-06	-0.0071060139286195706
9.89175e-06	-0.007127024876343754
9.89200e-06	-0.007148035824067937
9.89225e-06	-0.007164159477618758
9.89250e-06	-0.007169053888189231
9.89275e-06	-0.007173948298759705
9.89300e-06	-0.007178842709330145
9.89325e-06	-0.007183737119900619
9.89350e-06	-0.007188631530471092
9.89375e-06	-0.007187731746195702
9.89400e-06	-0.007173518987604891
9.89425e-06	-0.007159306229014082
9.89450e-06	-0.007145093470423369
9.89475e-06	-0.007130880711832558
9.89500e-06	-0.007116667953241749
9.89525e-06	-0.0070983544239365225
9.89550e-06	-0.007070618799474156
9.89575e-06	-0.0070428831750117896
9.89600e-06	-0.007015147550549611
9.89625e-06	-0.006987411926087246
9.89650e-06	-0.0069573739779711
9.89675e-06	-0.006922046118748211
9.89700e-06	-0.006886718259525562
9.89725e-06	-0.006851390400302673
9.89750e-06	-0.006816062541079784
9.89775e-06	-0.0067800469162902725
9.89800e-06	-0.006742451053767551
9.89825e-06	-0.006704850813720434
9.89850e-06	-0.00666724051569806
9.89875e-06	-0.0066297960693658675
9.89900e-06	-0.006592958486057753
9.89925e-06	-0.006556952198373424
9.89950e-06	-0.0065220526727684325
9.89975e-06	-0.0064887771950373945
9.90000e-06	-0.00645718091254056
9.90025e-06	-0.006426802640904115
9.90050e-06	-0.00639922291984074
9.90075e-06	-0.006372965987802704
9.90100e-06	-0.0063497483488481835
9.90125e-06	-0.006327973433673235
9.90150e-06	-0.006309513378481049
9.90175e-06	-0.0062910533232887365
9.90200e-06	-0.006274475368235897
9.90225e-06	-0.006262221801901335
9.90250e-06	-0.006249968235566691
9.90275e-06	-0.006240456458678628
9.90300e-06	-0.006237244327118793
9.90325e-06	-0.0062340321955589376
9.90350e-06	-0.006230820063999082
9.90375e-06	-0.006227607932439247
9.90400e-06	-0.006224395800879391
9.90425e-06	-0.006224242170302657
9.90450e-06	-0.00623111587417479
9.90475e-06	-0.006237989578046969
9.90500e-06	-0.006244863281919149
9.90525e-06	-0.006251736985791329
9.90550e-06	-0.006258610689663461
9.90575e-06	-0.006267728567392202
9.90600e-06	-0.006282002748924211
9.90625e-06	-0.006296276930456123
9.90650e-06	-0.006310551111988131
9.90675e-06	-0.006324825293520139
9.90700e-06	-0.006339099475052051
9.90725e-06	-0.006353373656584059
9.90750e-06	-0.006368502827132011
9.90775e-06	-0.00638559645471247
9.90800e-06	-0.006402690082293045
9.90825e-06	-0.006419783709873619
9.90850e-06	-0.006436877337454078
9.90875e-06	-0.006453970965034653
9.90900e-06	-0.006471064592615227
9.90925e-06	-0.006487672227571802
9.90950e-06	-0.00650316322639624
9.90975e-06	-0.006518654225220677
9.91000e-06	-0.0065334870891407704
9.91025e-06	-0.006546807795925496
9.91050e-06	-0.006559388348061265
9.91075e-06	-0.006570268291208493
9.91100e-06	-0.006579662535525197
9.91125e-06	-0.006585643178658533
9.91150e-06	-0.006591623821791829
9.91175e-06	-0.006595611279220728
9.91200e-06	-0.006595019113283698
9.91225e-06	-0.006594426947346674
9.91250e-06	-0.006591839995319901
9.91275e-06	-0.0065846697428179205
9.91300e-06	-0.006577499490315988
9.91325e-06	-0.00656750420950607
9.91350e-06	-0.006551018030422484
9.91375e-06	-0.0065345318513388975
9.91400e-06	-0.006518045672255424
9.91425e-06	-0.006501559493171838
9.91450e-06	-0.006482071942152481
9.91475e-06	-0.0064556883186718626
9.91500e-06	-0.006429304695191066
9.91525e-06	-0.006402921071710269
9.91550e-06	-0.006376537448229651
9.91575e-06	-0.006348264249869223
9.91600e-06	-0.006315649488526617
9.91625e-06	-0.006283034727184234
9.91650e-06	-0.006249649898109374
9.91675e-06	-0.0062144957305466505
9.91700e-06	-0.006178910235620819
9.91725e-06	-0.006142333705656014
9.91750e-06	-0.006105555315332426
9.91775e-06	-0.006068263840105612
9.91800e-06	-0.0060308743822714795
9.91825e-06	-0.005993599890249045
9.91850e-06	-0.005956652789645359
9.91875e-06	-0.005920235792786244
9.91900e-06	-0.005884526706679796
9.91925e-06	-0.005849697000525444
9.91950e-06	-0.005815951304653889
9.91975e-06	-0.005783520518124863
9.92000e-06	-0.005752641013632163
9.92025e-06	-0.0057238760795484565
9.92050e-06	-0.005697221860293605
9.92075e-06	-0.005671724295952269
9.92100e-06	-0.0056488843083017555
9.92125e-06	-0.005626792312480803
9.92150e-06	-0.005606418932669296
9.92175e-06	-0.005587073259081952
9.92200e-06	-0.005570088884509119
9.92225e-06	-0.005553104509936285
9.92250e-06	-0.00553752037832781
9.92275e-06	-0.005525153501079919
9.92300e-06	-0.00551278662383203
9.92325e-06	-0.005501908222553556
9.92350e-06	-0.0054944498033249545
9.92375e-06	-0.005486991384096353
9.92400e-06	-0.005479532964867801
9.92425e-06	-0.005472074545639199
9.92450e-06	-0.0054646161264105975
9.92475e-06	-0.005458845760607586
9.92500e-06	-0.005456953934017681
9.92525e-06	-0.005455062107427778
9.92550e-06	-0.005453170280837886
9.92575e-06	-0.005451278454247982
9.92600e-06	-0.005449386627658077
9.92625e-06	-0.005448640590017202
9.92650e-06	-0.005450527162992583
9.92675e-06	-0.005452413735967963
9.92700e-06	-0.0054543003089433315
9.92725e-06	-0.0054561868819187126
9.92750e-06	-0.005458073454894093
9.92775e-06	-0.005459960027869461
9.92800e-06	-0.005463132266450101
9.92825e-06	-0.005466619424730257
9.92850e-06	-0.00547010658301039
9.92875e-06	-0.005473593741290545
9.92900e-06	-0.005477080899570701
9.92925e-06	-0.005480568057850834
9.92950e-06	-0.005483851692023328
9.92975e-06	-0.0054866677010481065
9.93000e-06	-0.005489483710072867
9.93025e-06	-0.005492299719097646
9.93050e-06	-0.005495115728122424
9.93075e-06	-0.005497931737147204
9.93100e-06	-0.005500747746171964
9.93125e-06	-0.005503563755196742
9.93150e-06	-0.005507364190545515
9.93175e-06	-0.005511405757990289
9.93200e-06	-0.00551544732543509
9.93225e-06	-0.005519488892879892
9.93250e-06	-0.005523530460324666
9.93275e-06	-0.005527572027769467
9.93300e-06	-0.005531613595214268
9.93325e-06	-0.005536589685442564
9.93350e-06	-0.005543712972677552
9.93375e-06	-0.005550836259912539
9.93400e-06	-0.005557959547147479
9.93425e-06	-0.005565082834382467
9.93450e-06	-0.005572206121617454
9.93475e-06	-0.005579329408852393
9.93500e-06	-0.005587204561118013
9.93525e-06	-0.005596807228615751
9.93550e-06	-0.005606409896113423
9.93575e-06	-0.00561601256361116
9.93600e-06	-0.005625615231108897
9.93625e-06	-0.005635217898606569
9.93650e-06	-0.005644820566104306
9.93675e-06	-0.00565470958825068
9.93700e-06	-0.005665256550315965
9.93725e-06	-0.005675803512381321
9.93750e-06	-0.005686350474446677
9.93775e-06	-0.005696897436511961
9.93800e-06	-0.005707444398577318
9.93825e-06	-0.005717991360642674
9.93850e-06	-0.005728123365672236
9.93875e-06	-0.005737301948783319
9.93900e-06	-0.0057464805318944
9.93925e-06	-0.005755659115005482
9.93950e-06	-0.005764837698116501
9.93975e-06	-0.005774016281227584
9.94000e-06	-0.005783194864338665
9.94025e-06	-0.005791620768777923
9.94050e-06	-0.005798317288530266
9.94075e-06	-0.00580501380828261
9.94100e-06	-0.005811805127326582
9.94125e-06	-0.005818814261023138
9.94150e-06	-0.005825823394719694
9.94175e-06	-0.0058334963991545285
9.94200e-06	-0.0058426947396088
9.94225e-06	-0.005851893080063072
9.94250e-06	-0.005861091420517282
9.94275e-06	-0.005870289760971554
9.94300e-06	-0.005879488101425826
9.94325e-06	-0.005888686441880035
9.94350e-06	-0.005899053783076156
9.94375e-06	-0.005912107067235884
9.94400e-06	-0.005925160351395524
9.94425e-06	-0.005938213635555253
9.94450e-06	-0.0059512669197149815
9.94475e-06	-0.005964320203874621
9.94500e-06	-0.005977373488034349
9.94525e-06	-0.005991468701001253
9.94550e-06	-0.006007957891361052
9.94575e-06	-0.006024447081720963
9.94600e-06	-0.006040936272080873
9.94625e-06	-0.006057425462440672
9.94650e-06	-0.0060739146528005815
