Time(s)	Current(A)
1.03000e-05	0.003889502559215412
1.03003e-05	0.003888902598302465
1.03005e-05	0.0038883026373895146
1.03008e-05	0.003887702676476564
1.03010e-05	0.0038871027155636174
1.03013e-05	0.003886502754650667
1.03015e-05	0.0038859027937377163
1.03018e-05	0.00388530283282477
1.03020e-05	0.003884702871911819
1.03023e-05	0.0038841029109988687
1.03025e-05	0.003883502950085922
1.03028e-05	0.0038829029891729715
1.03030e-05	0.0038823030282600208
1.03032e-05	0.0038817030673470743
1.03035e-05	0.0038811031064341236
1.03038e-05	0.0038805031455211732
1.03040e-05	0.003879903184608227
1.03043e-05	0.003879303223695276
1.03045e-05	0.0038834757259500947
1.03047e-05	0.003888959734264992
1.03050e-05	0.003894443742579927
1.03053e-05	0.0038999277508948616
1.03055e-05	0.003905411759209759
1.03058e-05	0.003910895767524693
1.03060e-05	0.003916379775839628
1.03063e-05	0.003921863784154563
1.03065e-05	0.00392734779246946
1.03068e-05	0.003932831800784395
1.03070e-05	0.00393831580909933
1.03073e-05	0.003943799817414227
1.03075e-05	0.003949283825729162
1.03078e-05	0.0039547678340440965
1.03080e-05	0.003960251842358994
1.03083e-05	0.003965735850673929
1.03085e-05	0.0039712108002661495
1.03088e-05	0.003976662960171185
1.03090e-05	0.003982115120076258
1.03093e-05	0.00398756727998133
1.03095e-05	0.003993019439886366
1.03098e-05	0.003998471599791438
1.03100e-05	0.00400392375969651
1.03103e-05	0.004009375919601546
1.03105e-05	0.004014828079506618
1.03108e-05	0.00402028023941169
1.03110e-05	0.004025732399316726
1.03113e-05	0.004031184559221798
1.03115e-05	0.004036636719126871
1.03117e-05	0.004042088879031906
1.03120e-05	0.004047541038936979
1.03123e-05	0.004052993198842051
1.03125e-05	0.004058445358747087
1.03128e-05	0.004060028651629594
1.03130e-05	0.004060548752954673
1.03132e-05	0.004061068854279749
1.03135e-05	0.004061588955604827
1.03138e-05	0.004062109056929906
1.03140e-05	0.004062629158254981
1.03143e-05	0.00406314925958006
1.03145e-05	0.004063669360905139
1.03148e-05	0.004064189462230217
1.03150e-05	0.004064709563555292
1.03153e-05	0.004065229664880371
1.03155e-05	0.00406574976620545
1.03158e-05	0.004066269867530526
1.03160e-05	0.004066789968855604
1.03163e-05	0.004067310070180683
1.03165e-05	0.004067830171505758
1.03168e-05	0.004068350272830837
1.03170e-05	0.004068870374155916
1.03173e-05	0.0040693904754809905
1.03175e-05	0.004069910576806069
1.03178e-05	0.004070430678131148
1.03180e-05	0.004070950779456224
1.03183e-05	0.004069255508326803
1.03185e-05	0.0040669514374436265
1.03188e-05	0.0040646473665604645
1.03190e-05	0.004062343295677288
1.03193e-05	0.00406003922479411
1.03195e-05	0.004057735153910948
1.03198e-05	0.004055431083027771
1.03200e-05	0.004053127012144594
1.03202e-05	0.0040508229412614324
1.03205e-05	0.004048518870378255
1.03208e-05	0.004046214799495078
1.03210e-05	0.004043910728611916
1.03213e-05	0.004041606657728739
1.03215e-05	0.0040393025868455616
1.03217e-05	0.0040369985159624
1.03220e-05	0.004034694445079223
1.03223e-05	0.004032390374196045
1.03225e-05	0.004030086303312884
1.03228e-05	0.004027782232429706
1.03230e-05	0.0040254781615465295
1.03232e-05	0.0040231740906633675
1.03235e-05	0.004020870019780191
1.03238e-05	0.004012643167460883
1.03240e-05	0.004002788693622033
1.03243e-05	0.0039929342197832516
1.03245e-05	0.003983079745944403
1.03248e-05	0.003973225272105555
1.03250e-05	0.003963370798266772
1.03253e-05	0.0039535163244279236
1.03255e-05	0.003943661850589075
1.03258e-05	0.0039338073767502925
1.03260e-05	0.003923952902911444
1.03263e-05	0.0039140984290725956
1.03265e-05	0.0039042439552338134
1.03268e-05	0.0038943894813949645
1.03270e-05	0.003884535007556116
1.03273e-05	0.00387179220074753
1.03275e-05	0.0038582556599561376
1.03278e-05	0.0038447191191647453
1.03280e-05	0.0038311825783734444
1.03283e-05	0.003817646037582052
1.03285e-05	0.00380410949679066
1.03287e-05	0.0037905729559993594
1.03290e-05	0.003777036415207967
1.03293e-05	0.0037634998744165747
1.03295e-05	0.003749963333625274
1.03298e-05	0.0037364267928338816
1.03300e-05	0.0037228902520424893
1.03302e-05	0.003709353711251189
1.03305e-05	0.0036958171704597966
1.03308e-05	0.0036875937119977297
1.03310e-05	0.0036808303255020094
1.03313e-05	0.003674066939006243
1.03315e-05	0.003667303552510477
1.03317e-05	0.0036605401660147565
1.03320e-05	0.0036537767795189902
1.03323e-05	0.003647013393023224
1.03325e-05	0.003640250006527458
1.03328e-05	0.0036334866200317378
1.03330e-05	0.0036267232335359715
1.03333e-05	0.003619959847040205
1.03335e-05	0.003613196460544485
1.03338e-05	0.0036064330740487186
1.03340e-05	0.0035996696875529523
1.03343e-05	0.003592906301057232
1.03345e-05	0.003586142914561466
1.03348e-05	0.0035793795280657
1.03350e-05	0.0035726161415699795
1.03353e-05	0.0035658527550742132
1.03355e-05	0.003559089368578447
1.03358e-05	0.0035523259820827266
1.03360e-05	0.0035495854747119326
1.03363e-05	0.003547950482496328
1.03365e-05	0.003546315490280734
1.03368e-05	0.0035446804980651288
1.03370e-05	0.003543045505849524
1.03373e-05	0.0035414105136339297
1.03375e-05	0.003539775521418325
1.03378e-05	0.00353814052920272
1.03380e-05	0.003536505536987126
1.03383e-05	0.003534870544771521
1.03385e-05	0.003533235552555916
1.03387e-05	0.003531600560340322
1.03390e-05	0.003529965568124717
1.03393e-05	0.003528330575909112
1.03395e-05	0.0035266955836935183
1.03398e-05	0.003525060591477913
1.03400e-05	0.003523425599262308
1.03402e-05	0.003521790607046714
1.03405e-05	0.0035201556148311093
1.03408e-05	0.003518520622615504
1.03410e-05	0.003516885630399899
1.03413e-05	0.0035189417485637035
1.03415e-05	0.003522012209524851
1.03418e-05	0.0035250826704859993
1.03420e-05	0.0035281531314471266
1.03423e-05	0.0035312235924082743
1.03425e-05	0.0035342940533694225
1.03428e-05	0.0035373645143305494
1.03430e-05	0.0035404349752916975
1.03433e-05	0.0035435054362528457
1.03435e-05	0.0035465758972139725
1.03438e-05	0.0035496463581751207
1.03440e-05	0.0035527168191362684
1.03443e-05	0.0035557872800973957
1.03445e-05	0.003558857741058544
1.03448e-05	0.0035619282020196916
1.03450e-05	0.003564998662980819
1.03453e-05	0.0035680691239419666
1.03455e-05	0.003577398375729247
1.03458e-05	0.0035884475867544187
1.03460e-05	0.003599496797779666
1.03463e-05	0.0036105460088049126
1.03465e-05	0.0036215952198300847
1.03468e-05	0.0036326444308553314
1.03470e-05	0.003643693641880578
1.03472e-05	0.0036547428529057503
1.03475e-05	0.003665792063930997
1.03478e-05	0.003676841274956244
1.03480e-05	0.003687890485981416
1.03483e-05	0.003698939697006663
1.03485e-05	0.0037099889080319096
1.03487e-05	0.0037210381190570818
1.03490e-05	0.0037320873300823285
1.03493e-05	0.003743136541107575
1.03495e-05	0.0037541857521328223
1.03498e-05	0.003761159546355114
1.03500e-05	0.003767013387702472
1.03503e-05	0.0037728672290498304
1.03505e-05	0.003778721070397149
1.03508e-05	0.0037845749117445073
1.03510e-05	0.003790428753091866
1.03513e-05	0.0037962825944391843
1.03515e-05	0.003802136435786543
1.03518e-05	0.003807990277133901
1.03520e-05	0.00381384411848122
1.03523e-05	0.003819697959828578
1.03525e-05	0.0038255518011759363
1.03528e-05	0.003831405642523255
1.03530e-05	0.0038372594838706133
1.03533e-05	0.003843113325217972
1.03535e-05	0.0038489671665652907
1.03538e-05	0.003854821007912649
1.03540e-05	0.0038563853569685584
1.03543e-05	0.003847158318474439
1.03545e-05	0.003837931279980257
1.03548e-05	0.0038287042414860755
1.03550e-05	0.003819477202991956
1.03553e-05	0.003810250164497774
1.03555e-05	0.0038010231260035927
1.03557e-05	0.0037917960875094732
1.03560e-05	0.0037825690490152913
1.03563e-05	0.00377334201052111
1.03565e-05	0.0037641149720269904
1.03568e-05	0.0037548879335328085
1.03570e-05	0.0037456608950386266
1.03572e-05	0.0037364338565445076
1.03575e-05	0.0037272068180503257
1.03578e-05	0.0037179797795561438
1.03580e-05	0.0037087527410619623
1.03583e-05	0.003699525702567843
1.03585e-05	0.0036867454019021916
1.03588e-05	0.0036729886400846262
1.03590e-05	0.0036592318782671537
1.03593e-05	0.0036454751164495883
1.03595e-05	0.003631718354632023
1.03598e-05	0.0036179615928145503
1.03600e-05	0.003604204830996985
1.03603e-05	0.0035904480691794196
1.03605e-05	0.0035766913073619474
1.03608e-05	0.0035650359497298714
1.03610e-05	0.0035586672473542917
1.03613e-05	0.0035522985449787554
1.03615e-05	0.0035459298426031758
1.03618e-05	0.003539561140227596
1.03620e-05	0.0035331924378520594
1.03623e-05	0.0035268237354764797
1.03625e-05	0.0035204550331009
1.03628e-05	0.003514086330725364
1.03630e-05	0.003507717628349784
1.03633e-05	0.0035158298652057805
1.03635e-05	0.0035279215648546932
1.03638e-05	0.003540013264503688
1.03640e-05	0.003552104964152682
1.03642e-05	0.003564196663801595
1.03645e-05	0.0035762883634505895
1.03648e-05	0.003588380063099584
1.03650e-05	0.003600471762748497
1.03653e-05	0.0036125634623974914
1.03655e-05	0.003624655162046486
1.03657e-05	0.003636746861695399
1.03660e-05	0.0036613685234419932
1.03663e-05	0.003689433505899605
1.03665e-05	0.0037174984883572167
1.03668e-05	0.003745563470814638
1.03670e-05	0.00377362845327225
1.03673e-05	0.0038016934357298616
1.03675e-05	0.0038297584181872834
1.03678e-05	0.0038578234006448947
1.03680e-05	0.0038858883831025064
1.03683e-05	0.003913953365559928
1.03685e-05	0.0039420183480175395
1.03688e-05	0.00396922553589476
1.03690e-05	0.0039961969958564455
1.03693e-05	0.004023168455818314
1.03695e-05	0.004050139915780183
1.03698e-05	0.004077111375741869
1.03700e-05	0.004104082835703737
1.03703e-05	0.004131054295665605
1.03705e-05	0.004158025755627292
1.03708e-05	0.00418499721558916
1.03710e-05	0.004211968675551028
1.03713e-05	0.004238940135512714
1.03715e-05	0.004265911595474583
1.03718e-05	0.004292883055436451
1.03720e-05	0.004304811251708718
1.03723e-05	0.004312605454515579
1.03725e-05	0.004320399657322441
1.03727e-05	0.004328193860129251
1.03730e-05	0.004335988062936113
1.03733e-05	0.0043437822657429745
1.03735e-05	0.004351576468549783
1.03738e-05	0.004359370671356646
1.03740e-05	0.004367164874163508
1.03742e-05	0.004374959076970317
1.03745e-05	0.0043827532797771785
1.03748e-05	0.004390547482584041
1.03750e-05	0.004398341685390903
1.03753e-05	0.004393156397098518
1.03755e-05	0.004384404254398461
1.03758e-05	0.004375652111698406
1.03760e-05	0.004366899968998408
1.03763e-05	0.004358147826298352
1.03765e-05	0.004349395683598296
1.03768e-05	0.004340643540898299
1.03770e-05	0.004331891398198243
1.03773e-05	0.004323139255498186
1.03775e-05	0.0043143871127981894
1.03778e-05	0.004305634970098133
1.03780e-05	0.004296882827398077
1.03783e-05	0.004284460870288277
1.03785e-05	0.0042710304226601685
1.03788e-05	0.00425759997503206
1.03790e-05	0.004244169527404043
1.03793e-05	0.004230739079775935
1.03795e-05	0.004217308632147827
1.03798e-05	0.0042038781845198095
1.03800e-05	0.004190447736891701
1.03803e-05	0.004177017289263593
1.03805e-05	0.004163586841635576
1.03808e-05	0.004150156394007467
1.03810e-05	0.0041367259463793585
1.03812e-05	0.004128224542637789
1.03815e-05	0.004121077674430904
1.03818e-05	0.00411393080622402
1.03820e-05	0.004106783938017184
1.03823e-05	0.004099637069810299
1.03825e-05	0.004092490201603414
1.03827e-05	0.0040853433333965785
1.03830e-05	0.004078196465189694
1.03833e-05	0.00407104959698281
1.03835e-05	0.0040639027287759245
1.03838e-05	0.004056755860569089
1.03840e-05	0.004049608992362204
1.03843e-05	0.00404246212415532
1.03845e-05	0.004035315255948483
1.03848e-05	0.004028168387741599
1.03850e-05	0.004021021519534714
1.03853e-05	0.0040138746513278785
1.03855e-05	0.004006727783120994
1.03858e-05	0.003999580914914109
1.03860e-05	0.003992434046707273
1.03863e-05	0.003985287178500389
1.03865e-05	0.003978140310293504
1.03868e-05	0.0039709934420866675
1.03870e-05	0.003966420891532987
1.03873e-05	0.003962555781371476
1.03875e-05	0.00395869067120999
1.03878e-05	0.003954825561048478
1.03880e-05	0.0039509604508869665
1.03883e-05	0.003947095340725481
1.03885e-05	0.003943230230563969
1.03888e-05	0.003939365120402457
1.03890e-05	0.003935500010240972
1.03893e-05	0.00393163490007946
1.03895e-05	0.003927769789917948
1.03897e-05	0.003923904679756463
1.03900e-05	0.00392003956959495
1.03903e-05	0.003916174459433439
1.03905e-05	0.0039123093492719535
1.03908e-05	0.003908444239110441
1.03910e-05	0.0039045791289489297
1.03912e-05	0.003900714018787444
1.03915e-05	0.003896848908625932
1.03918e-05	0.0038929837984644205
1.03920e-05	0.0038891186883029086
1.03923e-05	0.003885253578141423
1.03925e-05	0.0038813884679799113
1.03928e-05	0.003872574276480152
1.03930e-05	0.003862400043013834
1.03933e-05	0.0038522258095474472
1.03935e-05	0.0038420515760810604
1.03938e-05	0.003831877342614742
1.03940e-05	0.0038217031091483554
1.03943e-05	0.0038115288756819686
1.03945e-05	0.0038013546422156507
1.03948e-05	0.003791180408749264
1.03950e-05	0.003781006175282877
1.03953e-05	0.0037708319418165593
1.03955e-05	0.0037606577083501725
1.03958e-05	0.0037504834748837857
1.03960e-05	0.003740309241417468
1.03963e-05	0.003724599452804748
1.03965e-05	0.0037073684551444178
1.03968e-05	0.0036901374574842037
1.03970e-05	0.0036729064598238735
1.03973e-05	0.0036556754621635433
1.03975e-05	0.0036384444645033297
1.03978e-05	0.0036212134668429995
1.03980e-05	0.0036039824691826688
1.03982e-05	0.003586751471522455
1.03985e-05	0.003569520473862125
1.03988e-05	0.0035522894762017947
1.03990e-05	0.003535058478541581
1.03993e-05	0.0035178274808812505
1.03995e-05	0.0035005964832209202
1.03997e-05	0.003486659532423837
1.04000e-05	0.0034736278086111004
1.04003e-05	0.003460596084798364
1.04005e-05	0.003447564360985628
1.04008e-05	0.00343453263717298
1.04010e-05	0.0034215009133602434
1.04013e-05	0.003408469189547507
1.04015e-05	0.003395437465734859
1.04018e-05	0.003382405741922123
1.04020e-05	0.0033693740181093865
1.04023e-05	0.0033563422942967385
1.04025e-05	0.003343310570484002
1.04028e-05	0.003330278846671266
1.04030e-05	0.003317247122858618
1.04033e-05	0.00330547523301873
1.04035e-05	0.0032968727990844364
1.04038e-05	0.0032882703651502007
1.04040e-05	0.003279667931215907
1.04043e-05	0.0032710654972816127
1.04045e-05	0.003262463063347377
1.04048e-05	0.003253860629413083
1.04050e-05	0.0032452581954787894
1.04053e-05	0.0032366557615445537
1.04055e-05	0.00322805332761026
1.04058e-05	0.0032194508936759657
1.04060e-05	0.00321084845974173
1.04063e-05	0.0032022460258074362
1.04065e-05	0.0031936435918731424
1.04067e-05	0.0031850411579389067
1.04070e-05	0.0031771777563262002
1.04073e-05	0.003169517445934697
1.04075e-05	0.003161857135543246
1.04078e-05	0.0031541968251517427
1.04080e-05	0.0031465365147602393
1.04082e-05	0.003138876204368788
1.04085e-05	0.003131215893977285
1.04088e-05	0.0031235555835857818
1.04090e-05	0.003115895273194279
1.04093e-05	0.0031082349628028276
1.04095e-05	0.0031005746524113242
1.04098e-05	0.0030939384968357133
1.04100e-05	0.0030898788819791324
1.04103e-05	0.0030858192671225242
1.04105e-05	0.0030817596522659156
1.04108e-05	0.003077700037409335
1.04110e-05	0.0030736404225527266
1.04113e-05	0.0030695808076961185
1.04115e-05	0.0030655211928395376
1.04118e-05	0.003061461577982929
1.04120e-05	0.003057401963126321
1.04123e-05	0.00305334234826974
1.04125e-05	0.003049282733413132
1.04128e-05	0.0030582448144568287
1.04130e-05	0.003070785348087437
1.04133e-05	0.00308332588171813
1.04135e-05	0.003095866415348823
1.04138e-05	0.0031084069489794313
1.04140e-05	0.0031209474826101244
1.04143e-05	0.0031334880162408175
1.04145e-05	0.0031460285498714257
1.04148e-05	0.0031585690835021184
1.04150e-05	0.0031711096171328115
1.04152e-05	0.0031836501507634197
1.04155e-05	0.003209983634758825
1.04158e-05	0.003240107517431847
1.04160e-05	0.003270231400104665
1.04163e-05	0.0033003552827776867
1.04165e-05	0.003330479165450709
1.04167e-05	0.0033606030481235266
1.04170e-05	0.003390726930796549
1.04173e-05	0.003420850813469571
1.04175e-05	0.003450974696142593
1.04178e-05	0.0034810985788154107
1.04180e-05	0.003511222461488433
1.04183e-05	0.0035439726461616436
1.04185e-05	0.003577444556887873
1.04188e-05	0.0036109164676143297
1.04190e-05	0.003644388378340786
1.04193e-05	0.003677860289067016
1.04195e-05	0.003711332199793472
1.04198e-05	0.0037448041105199283
1.04200e-05	0.003778276021246158
1.04203e-05	0.0038117479319726144
1.04205e-05	0.0038452198426990707
1.04208e-05	0.0038754791664980105
1.04210e-05	0.0038976563518290826
1.04213e-05	0.003919833537160154
1.04215e-05	0.003942010722491077
1.04218e-05	0.003964187907822148
1.04220e-05	0.003986365093153221
1.04223e-05	0.004008542278484142
1.04225e-05	0.004030719463815215
1.04228e-05	0.0040528966491462865
1.04230e-05	0.004075073834477209
1.04233e-05	0.0040972510198082806
1.04235e-05	0.004113648387636446
1.04237e-05	0.004128457421420778
1.04240e-05	0.00414326645520521
1.04243e-05	0.004158075488989643
1.04245e-05	0.004172884522773975
1.04248e-05	0.004187693556558407
1.04250e-05	0.00420250259034284
1.04252e-05	0.0042173116241271714
1.04255e-05	0.004232120657911604
1.04258e-05	0.004246929691696036
1.04260e-05	0.004261738725480469
1.04263e-05	0.004276547759264801
1.04265e-05	0.0042913567930492336
1.04268e-05	0.004306165826833666
1.04270e-05	0.004320974860617998
1.04273e-05	0.004335783894402431
1.04275e-05	0.004350592928186863
1.04278e-05	0.004365401961971195
1.04280e-05	0.004380210995755627
1.04283e-05	0.004390120915477257
1.04285e-05	0.004398684524584744
1.04288e-05	0.004407248133692288
1.04290e-05	0.0044158117427998324
1.04293e-05	0.004424375351907319
1.04295e-05	0.004432938961014864
1.04298e-05	0.0044415025701224084
1.04300e-05	0.004450066179229895
1.04303e-05	0.004458629788337439
1.04305e-05	0.0044671933974449836
1.04308e-05	0.00447575700655247
1.04310e-05	0.004484320615660015
1.04313e-05	0.0044928842247675595
1.04315e-05	0.004501447833875046
1.04318e-05	0.00451001144298259
1.04320e-05	0.004518575052090135
1.04322e-05	0.004527138661197622
1.04325e-05	0.004535702270305166
1.04328e-05	0.004544265879412711
1.04330e-05	0.004541318113025383
1.04333e-05	0.004535206940598356
1.04335e-05	0.004529095768171329
1.04337e-05	0.0045229845957443435
1.04340e-05	0.004516873423317316
1.04343e-05	0.004510762250890289
1.04345e-05	0.004504651078463262
1.04348e-05	0.004498539906036277
1.04350e-05	0.0044924287336092494
1.04353e-05	0.004486317561182222
1.04355e-05	0.004480206388755237
1.04358e-05	0.00447409521632821
1.04360e-05	0.0044679840439011825
1.04363e-05	0.004461872871474196
1.04365e-05	0.004448369530814108
1.04368e-05	0.004432834770915829
1.04370e-05	0.004417300011017655
1.04373e-05	0.004401765251119377
1.04375e-05	0.004386230491221099
1.04378e-05	0.004370695731322926
1.04380e-05	0.004355160971424648
1.04383e-05	0.004339626211526369
1.04385e-05	0.004324091451628196
1.04388e-05	0.004308556691729918
1.04390e-05	0.004293021931831639
1.04393e-05	0.004277487171933466
1.04395e-05	0.0042619524120351875
1.04398e-05	0.004246417652136909
1.04400e-05	0.004236004209096351
1.04403e-05	0.00422699813954383
1.04405e-05	0.004217992069991308
1.04407e-05	0.004208986000438847
1.04410e-05	0.004199979930886326
1.04413e-05	0.0041909738613338035
1.04415e-05	0.004181967791781344
1.04418e-05	0.004172961722228821
1.04420e-05	0.0041639556526763
1.04422e-05	0.004154949583123839
1.04425e-05	0.0041459435135713174
1.04428e-05	0.004136937444018796
1.04430e-05	0.004127931374466274
1.04433e-05	0.004118925304913813
1.04435e-05	0.004109919235361291
1.04438e-05	0.004106063944365013
1.04440e-05	0.00411516684142257
1.04443e-05	0.0041242697384801874
1.04445e-05	0.004133372635537806
1.04448e-05	0.004142475532595362
1.04450e-05	0.00415157842965298
1.04453e-05	0.004160681326710599
1.04455e-05	0.004169784223768155
1.04458e-05	0.004178887120825773
1.04460e-05	0.004187990017883392
1.04463e-05	0.004197092914940948
1.04465e-05	0.004206195811998566
1.04468e-05	0.004215298709056184
1.04470e-05	0.004224401606113741
1.04473e-05	0.004233504503171359
1.04475e-05	0.0042426074002289765
1.04478e-05	0.004257660111684773
1.04480e-05	0.004274347873515031
1.04483e-05	0.004291035635345287
1.04485e-05	0.004307723397175431
1.04488e-05	0.004324411159005687
1.04490e-05	0.004341098920835945
1.04492e-05	0.004357786682666088
1.04495e-05	0.004374474444496345
1.04498e-05	0.004391162206326601
