Time(s)	Current(A)
4.75000e-06	0.00021552703748311454
4.75025e-06	0.00023121516625251227
4.75050e-06	0.00024691620088237916
4.75075e-06	0.0002641337553448319
4.75100e-06	0.00028135130980728464
4.75125e-06	0.0002985803559474677
4.75150e-06	0.0003171597465459287
4.75175e-06	0.0003357391371444527
4.75200e-06	0.0003543185277429137
4.75225e-06	0.00037289791834137475
4.75250e-06	0.00039147777477292463
4.75275e-06	0.000410112369516996
4.75300e-06	0.00042874696426106735
4.75325e-06	0.00044738155900520183
4.75350e-06	0.0004660161537492732
4.75375e-06	0.0004846371350585409
4.75400e-06	0.0005016584520935583
4.75425e-06	0.0005186797691285181
4.75450e-06	0.0005356816645020566
4.75475e-06	0.0005504013924168868
4.75500e-06	0.0005651211203316672
4.75525e-06	0.0005798133219875761
4.75550e-06	0.00059127101497459
4.75575e-06	0.0006027287079615651
4.75600e-06	0.0006141579568421006
4.75625e-06	0.0006222448441855768
4.75650e-06	0.000630331731529053
4.75675e-06	0.0006383885000134892
4.75700e-06	0.0006429061129923052
4.75725e-06	0.0006474237259711213
4.75750e-06	0.0006519104900369338
4.75775e-06	0.0006527723126644186
4.75800e-06	0.0006536341352919034
4.75825e-06	0.0006544681664244512
4.75850e-06	0.0006520365219872374
4.75875e-06	0.0006496048775500238
4.75900e-06	0.0006471470908291845
4.75925e-06	0.000641617421250066
4.75950e-06	0.0006360877516709475
4.75975e-06	0.0006305356593339541
4.76000e-06	0.0006223487518264749
4.76025e-06	0.0006141618443189679
4.76050e-06	0.0006059505781581776
4.76075e-06	0.0005948770169281241
4.76100e-06	0.000583803455698033
4.76125e-06	0.0005727298944679796
4.76150e-06	0.0005616563332379261
4.76175e-06	0.000550582772007835
4.76200e-06	0.0005394942272761076
4.76225e-06	0.0005266450267979735
4.76250e-06	0.000513795826319796
4.76275e-06	0.0005009466258416619
4.76300e-06	0.0004880974253635278
4.76325e-06	0.0004752482248853502
4.76350e-06	0.0004624051379472525
4.76375e-06	0.0004502804304388388
4.76400e-06	0.000438155722930384
4.76425e-06	0.00042603101542197023
4.76450e-06	0.00041390630791351545
4.76475e-06	0.00040312256995938146
4.76500e-06	0.000393635290372056
4.76525e-06	0.0003841480107846985
4.76550e-06	0.0003746607311973731
4.76575e-06	0.000365202854973282
4.76600e-06	0.0003592000589743233
4.76625e-06	0.00035322143641381066
4.76650e-06	0.0003500833449986438
4.76675e-06	0.00034696914668216997
4.76700e-06	0.0003466625378283083
4.76725e-06	0.0003463797702538918
4.76750e-06	0.0003488985030531175
4.76775e-06	0.00035144320380888866
4.76800e-06	0.00035703930288102464
4.76825e-06	0.0003626612068387129
4.76850e-06	0.0003713153472403445
4.76875e-06	0.00037999289914090003
4.76900e-06	0.00039142144949231113
4.76925e-06	0.0004028711616254758
4.76950e-06	0.00041680751628781474
4.76975e-06	0.00043076414713828586
4.77000e-06	0.0004471033576988312
4.77025e-06	0.00046346424205313304
4.77050e-06	0.0004823719335604228
4.77075e-06	0.0005012796250677126
4.77100e-06	0.0005202110246411947
4.77125e-06	0.0005419282711783828
4.77150e-06	0.000563645517715571
4.77175e-06	0.0005853627642528328
4.77200e-06	0.0006070800107900209
4.77225e-06	0.0006287972573272091
4.77250e-06	0.0006509619050566485
4.77275e-06	0.0006735591032618795
4.77300e-06	0.0006961563014671872
4.77325e-06	0.0007187534996724183
4.77350e-06	0.0007413506978776493
4.77375e-06	0.0007638925680175889
4.77400e-06	0.000779933042310411
4.77425e-06	0.0007959735166032332
4.77450e-06	0.0008120139908961097
4.77475e-06	0.0008280544651889319
4.77500e-06	0.0008440949394817541
4.77525e-06	0.0008601354137746306
4.77550e-06	0.0008761758880674529
4.77575e-06	0.000892216362360275
4.77600e-06	0.0009082568366531516
4.77625e-06	0.0009242973109459738
4.77650e-06	0.0009403377852387959
4.77675e-06	0.000956276479835852
4.77700e-06	0.0009602554197180211
4.77725e-06	0.0009642343596002038
4.77750e-06	0.0009682132994823729
4.77775e-06	0.0009721922393645421
4.77800e-06	0.0009761711792467247
4.77825e-06	0.000980150119128894
4.77850e-06	0.000984129059011063
4.77875e-06	0.0009881079988932457
4.77900e-06	0.000992086938775415
4.77925e-06	0.000996065878657584
4.77950e-06	0.0010000448185397666
4.77975e-06	0.0010039610209354368
4.78000e-06	0.0010005051738993433
4.78025e-06	0.0009970493268632382
4.78050e-06	0.0009935934798271447
4.78075e-06	0.0009901376327910512
4.78100e-06	0.000986681785754946
4.78125e-06	0.0009832259387188525
4.78150e-06	0.000979770091682759
4.78175e-06	0.0009763142446466539
4.78200e-06	0.000972837763449127
4.78225e-06	0.0009669366384481103
4.78250e-06	0.0009610355134471136
4.78275e-06	0.0009551343884461168
4.78300e-06	0.0009492332634451001
4.78325e-06	0.0009433321384441034
4.78350e-06	0.0009374310134431067
4.78375e-06	0.0009315298884420899
4.78400e-06	0.0009256287634410933
4.78425e-06	0.0009197405585885728
4.78450e-06	0.000915370552476798
4.78475e-06	0.0009110005463650381
4.78500e-06	0.0009066305402532782
4.78525e-06	0.0009022605341415034
4.78550e-06	0.0008978905280297434
4.78575e-06	0.0008935205219179835
4.78600e-06	0.0008891505158062087
4.78625e-06	0.000887748731183515
4.78650e-06	0.000889216643020522
4.78675e-06	0.000890684554857524
4.78700e-06	0.0008921524666945259
4.78725e-06	0.0008936203785315329
4.78750e-06	0.0008950882903685349
4.78775e-06	0.0008965562022055369
4.78800e-06	0.0008980914280814816
4.78825e-06	0.0009075364770597032
4.78850e-06	0.0009169815260379248
4.78875e-06	0.0009264265750161785
4.78900e-06	0.0009358716239944001
4.78925e-06	0.0009453166729726217
4.78950e-06	0.0009547617219508754
4.78975e-06	0.000964206770929097
4.79000e-06	0.0009736518199073187
4.79025e-06	0.0009861584133008302
4.79050e-06	0.0010016249283852333
4.79075e-06	0.0010170914434696886
4.79100e-06	0.0010325579585540917
4.79125e-06	0.0010480244736384946
4.79150e-06	0.00106349098872295
4.79175e-06	0.001078957503807353
4.79200e-06	0.0010944240188917559
4.79225e-06	0.0011098950938225347
4.79250e-06	0.0011259019793846267
4.79275e-06	0.0011419088649467187
4.79300e-06	0.001157915750508865
4.79325e-06	0.0011739226360709572
4.79350e-06	0.0011899295216330492
4.79375e-06	0.0012059364071951954
4.79400e-06	0.0012219432927572875
4.79425e-06	0.0012379501783193795
4.79450e-06	0.001253957063881526
4.79475e-06	0.001269925575587639
4.79500e-06	0.0012813849177917122
4.79525e-06	0.0012928442599957465
4.79550e-06	0.0013043036021997809
4.79575e-06	0.001315762944403854
4.79600e-06	0.0013272222866078883
4.79625e-06	0.0013386816288119227
4.79650e-06	0.0013501409710159958
4.79675e-06	0.0013616003132200301
4.79700e-06	0.0013730596554240645
4.79725e-06	0.0013845209525913985
4.79750e-06	0.0013962119702408931
4.79775e-06	0.0014079029878903877
4.79800e-06	0.0014195940055399222
4.79825e-06	0.0014312850231894168
4.79850e-06	0.0014429760408389116
4.79875e-06	0.0014546670584884458
4.79900e-06	0.0014663580761379404
4.79925e-06	0.0014780490937874747
4.79950e-06	0.0014897401114369695
4.79975e-06	0.001501431129086464
4.80000e-06	0.0015131221467359983
4.80025e-06	0.0015248131643854931
4.80050e-06	0.0015365147822567322
4.80075e-06	0.0015494619928689815
4.80100e-06	0.0015624092034811868
4.80125e-06	0.0015753564140933921
4.80150e-06	0.0015883036247056413
4.80175e-06	0.0016012508353178466
4.80200e-06	0.0016141980459300521
4.80225e-06	0.0016271452565423013
4.80250e-06	0.0016400924671545066
4.80275e-06	0.001653039677766712
4.80300e-06	0.0016659868883789613
4.80325e-06	0.0016789340989911666
4.80350e-06	0.0016918813096034157
4.80375e-06	0.0017048083825549375
4.80400e-06	0.001715369153694897
4.80425e-06	0.0017259299248348924
4.80450e-06	0.0017364906959748518
4.80475e-06	0.0017470514671148114
4.80500e-06	0.0017576122382548067
4.80525e-06	0.001768112362032689
4.80550e-06	0.0017714860392541263
4.80575e-06	0.001774859716475575
4.80600e-06	0.0017782333936970122
4.80625e-06	0.0017816070709184497
4.80650e-06	0.0017849807481398984
4.80675e-06	0.0017882695910937723
4.80700e-06	0.0017815898739528791
4.80725e-06	0.0017749101568119634
4.80750e-06	0.0017681695627651541
4.80775e-06	0.0017542755493254916
4.80800e-06	0.001740381535885876
4.80825e-06	0.001726420477984213
4.80850e-06	0.0017045812740502644
4.80875e-06	0.0016827420701163896
4.80900e-06	0.0016608466561207054
4.80925e-06	0.0016323462062769042
4.80950e-06	0.0016038457564331995
4.80975e-06	0.0015752725513666509
4.81000e-06	0.001538150149957674
4.81025e-06	0.0015010277485488228
4.81050e-06	0.0014639053471399717
4.81075e-06	0.0014267829457309947
4.81100e-06	0.0013896605443221436
4.81125e-06	0.0013524831138066124
4.81150e-06	0.001308839417107173
4.81175e-06	0.0012651957204078816
4.81200e-06	0.0012215520237084422
4.81225e-06	0.0011779083270091507
4.81250e-06	0.0011342646303098593
4.81275e-06	0.001090621505505125
4.81300e-06	0.001047045581925674
4.81325e-06	0.001003469658346223
4.81350e-06	0.0009598937347666244
4.81375e-06	0.0009163178111871735
4.81400e-06	0.0008754466674872761
4.81425e-06	0.0008371905231291086
4.81450e-06	0.0007989343787710709
4.81475e-06	0.0007606782344130331
4.81500e-06	0.0007224804169568344
4.81525e-06	0.0006911363773583545
4.81550e-06	0.0006598355793358278
4.81575e-06	0.0006336159384772675
4.81600e-06	0.0006074330283872007
4.81625e-06	0.0005855662146194252
4.81650e-06	0.00056373778246879
4.81675e-06	0.0005464194317401888
4.81700e-06	0.0005291322177557897
4.81725e-06	0.0005155256672132019
4.81750e-06	0.0005045233696796685
4.81775e-06	0.0004971459270086575
4.81800e-06	0.0004898038724715533
4.81825e-06	0.0004866201462502302
4.81850e-06	0.00048347051231291215
4.81875e-06	0.0004843269361798472
4.81900e-06	0.00048521744213885827
4.81925e-06	0.000490112808285104
4.81950e-06	0.0004950397447628513
4.81975e-06	0.0005036763937623784
4.82000e-06	0.0005123382679356034
4.82025e-06	0.000523964258672833
4.82050e-06	0.0005356173722492857
4.82075e-06	0.000550457590022157
4.82100e-06	0.0005652978077950282
4.82125e-06	0.0005801712044957016
4.82150e-06	0.0005989433338884552
4.82175e-06	0.0006177154632812088
4.82200e-06	0.000636487592674026
4.82225e-06	0.0006552597220667796
4.82250e-06	0.0006740318514595332
4.82275e-06	0.0006935375173465888
4.82300e-06	0.0007137523712395444
4.82325e-06	0.0007339672251325002
4.82350e-06	0.0007541820790255243
4.82375e-06	0.0007743969329184801
4.82400e-06	0.0007945763805470251
4.82425e-06	0.0008105953694221344
4.82450e-06	0.0008266143582971893
4.82475e-06	0.0008426333471722985
4.82500e-06	0.0008586523360473535
4.82525e-06	0.0008746713249224085
4.82550e-06	0.0008906903137975177
4.82575e-06	0.0009067093026725727
4.82600e-06	0.0009176491330910144
4.82625e-06	0.0009236783990237722
4.82650e-06	0.0009297076649565097
4.82675e-06	0.000935736930889247
4.82700e-06	0.0009417661968220049
4.82725e-06	0.0009477954627547424
4.82750e-06	0.0009538247286874797
4.82775e-06	0.0009597873453918567
4.82800e-06	0.000957918258594818
4.82825e-06	0.0009560491717977793
4.82850e-06	0.0009541451080643388
4.82875e-06	0.0009481310343310985
4.82900e-06	0.0009421169605978377
4.82925e-06	0.0009360533739649537
4.82950e-06	0.0009241717102348517
4.82975e-06	0.0009122900465047095
4.83000e-06	0.0009004083827746076
4.83025e-06	0.0008885267190445056
4.83050e-06	0.0008766450553143634
4.83075e-06	0.0008647633915842616
4.83100e-06	0.000852838653523873
4.83125e-06	0.000835852410762246
4.83150e-06	0.0008188661680006766
4.83175e-06	0.0008018799252391074
4.83200e-06	0.0007848936824774804
4.83225e-06	0.000767907439715911
4.83250e-06	0.0007509211969543417
4.83275e-06	0.0007339292257962736
4.83300e-06	0.0007162641320316163
4.83325e-06	0.0006985990382668991
4.83350e-06	0.0006809339445022418
4.83375e-06	0.0006632688507375845
4.83400e-06	0.0006456037569728673
4.83425e-06	0.0006295074192643645
4.83450e-06	0.0006149277654397652
4.83475e-06	0.0006003481116151164
4.83500e-06	0.000585768457790517
4.83525e-06	0.0005711888039659176
4.83550e-06	0.0005566398441113732
4.83575e-06	0.0005456976187668941
4.83600e-06	0.000534755393422415
4.83625e-06	0.000523836340404785
4.83650e-06	0.0005156401815171994
4.83675e-06	0.0005074440226296138
4.83700e-06	0.0004992478637420004
4.83725e-06	0.0004910517048544148
4.83750e-06	0.0004828555459668014
4.83775e-06	0.0004746593870792158
4.83800e-06	0.00046646322819163017
4.83825e-06	0.00045829454118671414
4.83850e-06	0.0004533539731538068
4.83875e-06	0.0004484134051208995
4.83900e-06	0.0004434728370879754
4.83925e-06	0.0004385322690550681
4.83950e-06	0.0004335917010221608
4.83975e-06	0.0004286511329892367
4.84000e-06	0.0004237105649563294
4.84025e-06	0.000418787793038916
4.84050e-06	0.00041595617659998115
4.84075e-06	0.0004131245601610559
4.84100e-06	0.00041029294372213064
4.84125e-06	0.00040746132728319574
4.84150e-06	0.0004046297108442705
4.84175e-06	0.00040179809440533563
4.84200e-06	0.0003989664779664104
4.84225e-06	0.0003961348615274851
4.84250e-06	0.0003933032450885502
4.84275e-06	0.0003904829767975453
4.84300e-06	0.0003889961872459817
4.84325e-06	0.0003875093976944131
4.84350e-06	0.0003860226081428496
4.84375e-06	0.000384535818591286
4.84400e-06	0.0003830490290397174
4.84425e-06	0.00038156223948815387
4.84450e-06	0.0003800754499365903
4.84475e-06	0.0003785886603850217
4.84500e-06	0.0003771018708334581
4.84525e-06	0.0003756232135576207
4.84550e-06	0.00037510014981537366
4.84575e-06	0.00037457708607312846
4.84600e-06	0.0003740738680844382
4.84625e-06	0.00037590265092693275
4.84650e-06	0.0003777493750218935
4.84675e-06	0.0003817043090945877
4.84700e-06	0.00038567534950217604
4.84725e-06	0.00039153898553578555
4.84750e-06	0.000397420147531043
4.84775e-06	0.0004053607202175364
4.84800e-06	0.000413323420587923
4.84825e-06	0.0004238862629505191
4.84850e-06	0.0004344736947802506
4.84875e-06	0.00044795054361537615
4.84900e-06	0.00046142739245054736
4.84925e-06	0.00047492866125557206
4.84950e-06	0.0004912994300696093
4.84975e-06	0.000507670198883702
4.85000e-06	0.0005240650255877264
4.85025e-06	0.0005432868056333704
4.85050e-06	0.0005625085856789493
4.85075e-06	0.000581752343148973
4.85100e-06	0.0006035785861770918
4.85125e-06	0.0006254048292051365
4.85150e-06	0.0006472310722331812
4.85175e-06	0.0006690573152612998
4.85200e-06	0.0006908835582893445
4.85225e-06	0.0007127154874375152
4.85250e-06	0.0007352155714522009
4.85275e-06	0.0007577156554668103
4.85300e-06	0.0007802157394814198
4.85325e-06	0.0008027158234961055
4.85350e-06	0.0008252159075107149
4.85375e-06	0.0008476846774085556
4.85400e-06	0.0008664738417007487
4.85425e-06	0.0008852630059928782
4.85450e-06	0.0009040521702850713
4.85475e-06	0.0009228413345772009
4.85500e-06	0.0009416304988693303
4.85525e-06	0.0009604196631615235
4.85550e-06	0.000975103881424371
4.85575e-06	0.0009858194103171513
4.85600e-06	0.0009965349392099677
4.85625e-06	0.001007250468102748
4.85650e-06	0.0010179659969955283
4.85675e-06	0.0010286815258883448
4.85700e-06	0.001039351368668765
4.85725e-06	0.0010446271776601115
4.85750e-06	0.0010468914944747603
4.85775e-06	0.0010491558112894015
4.85800e-06	0.0010513848605535224
4.85825e-06	0.0010494697508992483
4.85850e-06	0.0010475546412449805
4.85875e-06	0.001045585416106033
4.85900e-06	0.0010372572812911366
4.85925e-06	0.0010289291464762402
4.85950e-06	0.001020601011661316
4.85975e-06	0.0010122728768464195
4.86000e-06	0.0010039447420315234
4.86025e-06	0.0009956166072165988
4.86050e-06	0.0009872884724017024
4.86075e-06	0.000975831095574572
4.86100e-06	0.000961348346569361
4.86125e-06	0.0009468655975641989
4.86150e-06	0.000932382848559037
4.86175e-06	0.0009179000995538258
4.86200e-06	0.0009034173505486639
4.86225e-06	0.0008889346015435018
4.86250e-06	0.0008744393944183942
4.86275e-06	0.0008584802798836138
4.86300e-06	0.0008425211653487793
4.86325e-06	0.0008265620508139989
4.86350e-06	0.0008106029362792185
4.86375e-06	0.0007946438217443842
4.86400e-06	0.0007787071463413778
4.86425e-06	0.000765407209990322
4.86450e-06	0.000752107273639221
4.86475e-06	0.000738807337288165
4.86500e-06	0.0007255074009371092
4.86525e-06	0.0007122074645860082
4.86550e-06	0.0006989423552809763
4.86575e-06	0.0006897696428282667
4.86600e-06	0.0006805969303755259
4.86625e-06	0.0006714497015385457
4.86650e-06	0.0006652969577544558
4.86675e-06	0.0006591442139703451
4.86700e-06	0.0006530188739798669
4.86725e-06	0.0006501136520134513
4.86750e-06	0.0006472084300470456
4.86775e-06	0.0006443298644653277
4.86800e-06	0.0006445835916592502
4.86825e-06	0.000644837318853172
4.86850e-06	0.0006451153708106212
4.86875e-06	0.0006482517353985249
4.86900e-06	0.000651388099986418
4.86925e-06	0.0006545605272109885
4.86950e-06	0.0006619705409487898
4.86975e-06	0.000669380554686566
4.87000e-06	0.0006767905684243421
4.87025e-06	0.0006842005821621435
4.87050e-06	0.0006916105958999196
4.87075e-06	0.0006990206096376959
4.87100e-06	0.0007064306233754971
4.87125e-06	0.0007156707213979075
4.87150e-06	0.0007266801571882279
4.87175e-06	0.0007376895929785108
4.87200e-06	0.0007486990287687938
4.87225e-06	0.0007597084645591142
4.87250e-06	0.0007707179003493971
4.87275e-06	0.0007817273361396801
4.87300e-06	0.000792734164430606
4.87325e-06	0.0008034345951516505
4.87350e-06	0.0008141350258726951
4.87375e-06	0.0008248354565937758
4.87400e-06	0.0008355358873148203
4.87425e-06	0.0008462363180358649
4.87450e-06	0.0008569367487569458
4.87475e-06	0.0008676371794779903
4.87500e-06	0.0008782994755817585
4.87525e-06	0.0008844807144412056
4.87550e-06	0.0008906619533006319
4.87575e-06	0.000896843192160079
4.87600e-06	0.0009030244310195052
4.87625e-06	0.0009092056698789315
4.87650e-06	0.0009153869087383786
4.87675e-06	0.0009215681475978049
4.87700e-06	0.000927693098422867
4.87725e-06	0.0009272038513913555
4.87750e-06	0.0009267146043598456
4.87775e-06	0.0009262253573283357
4.87800e-06	0.0009257361102968241
4.87825e-06	0.0009252468632653143
4.87850e-06	0.0009247576162338044
4.87875e-06	0.0009242683692022929
4.87900e-06	0.000923779122170783
4.87925e-06	0.0009232898751392731
4.87950e-06	0.0009227527136607708
4.87975e-06	0.000916585303486386
4.88000e-06	0.0009104178933119804
4.88025e-06	0.0009042504831375957
4.88050e-06	0.000898083072963211
4.88075e-06	0.0008919156627888054
4.88100e-06	0.0008857482526144207
4.88125e-06	0.000879580842440036
4.88150e-06	0.0008734134322656304
4.88175e-06	0.0008672460220912456
4.88200e-06	0.000861062259157716
4.88225e-06	0.0008529569442388947
4.88250e-06	0.000844851629320101
4.88275e-06	0.0008367463144013073
4.88300e-06	0.0008286409994824861
4.88325e-06	0.0008205356845636924
4.88350e-06	0.0008124303696448986
4.88375e-06	0.0008043250547260775
4.88400e-06	0.0007962350624682889
4.88425e-06	0.0007899455791874151
4.88450e-06	0.0007836560959065626
4.88475e-06	0.0007773666126257102
4.88500e-06	0.0007710771293448365
4.88525e-06	0.0007647876460639841
4.88550e-06	0.0007584981627831316
4.88575e-06	0.0007522086795022578
4.88600e-06	0.0007459720857480727
4.88625e-06	0.0007459503438008248
4.88650e-06	0.0007459286018535769
4.88675e-06	0.000745906859906329
4.88700e-06	0.0007458851179590811
4.88725e-06	0.0007458633760118333
4.88750e-06	0.0007458416340645854
4.88775e-06	0.0007458198921173376
4.88800e-06	0.0007457981501700896
4.88825e-06	0.0007457764082228417
4.88850e-06	0.0007457546662755938
4.88875e-06	0.0007494956449572495
4.88900e-06	0.0007568744471928881
4.88925e-06	0.0007642532494285517
4.88950e-06	0.0007716320516641902
4.88975e-06	0.0007790108538998289
4.89000e-06	0.0007863896561354925
4.89025e-06	0.000793768458371131
4.89050e-06	0.0008011472606067696
4.89075e-06	0.0008085260628424332
4.89100e-06	0.0008159048650780718
4.89125e-06	0.0008233130987927283
4.89150e-06	0.0008341797162662259
4.89175e-06	0.0008450463337396866
4.89200e-06	0.0008559129512131474
4.89225e-06	0.000866779568686645
4.89250e-06	0.0008776461861601057
4.89275e-06	0.0008885128036336034
4.89300e-06	0.0008993794211070641
4.89325e-06	0.0009098753749126226
4.89350e-06	0.0009200129685967564
4.89375e-06	0.0009301505622808558
4.89400e-06	0.0009402881559649553
4.89425e-06	0.0009504257496490891
4.89450e-06	0.0009605633433331885
4.89475e-06	0.0009707009370172879
4.89500e-06	0.0009808087734306235
4.89525e-06	0.0009874199435118626
4.89550e-06	0.0009956025593988503
4.89575e-06	0.001001730198537444
4.89600e-06	-0.008870895271286405
4.89625e-06	-0.016132720167997834
4.89650e-06	-0.013390968719273063
4.89675e-06	-0.010783718107762096
4.89700e-06	-0.0031497323560155848
