Time(s)	Current(A)
0.00000e+00	-2.115976070627878e-21
2.50000e-10	-4.02793606381621e-15
5.00000e-10	-1.831016665601118e-15
7.50000e-10	1.1737907669166562e-07
1.00000e-09	7.779066629777677e-07
1.25000e-09	2.2787607548315905e-06
1.50000e-09	4.285335187858827e-06
1.75000e-09	6.350242725931782e-06
2.00000e-09	8.343840904917472e-06
2.25000e-09	1.0254834701165222e-05
2.50000e-09	1.2071928128778824e-05
2.75000e-09	1.385734928656979e-05
3.00000e-09	1.5866485229569947e-05
3.25000e-09	1.8274155830404202e-05
3.50000e-09	2.0859432041140746e-05
3.75000e-09	2.3330761728154045e-05
4.00000e-09	2.5595645265358474e-05
4.25000e-09	2.7635719389528896e-05
4.50000e-09	2.9432621402636523e-05
4.75000e-09	3.101713353314362e-05
5.00000e-09	3.2540762713299314e-05
5.25000e-09	3.4196352359007466e-05
5.50000e-09	3.591142835489696e-05
5.75000e-09	3.760957563691849e-05
6.00000e-09	3.9300091637881304e-05
6.25000e-09	4.0892977531769046e-05
6.50000e-09	4.244185282965443e-05
6.75000e-09	4.400173878896923e-05
7.00000e-09	4.560878536798002e-05
7.25000e-09	4.7215831946990805e-05
7.50000e-09	4.898408973283658e-05
7.75000e-09	5.0825019786567996e-05
8.00000e-09	5.266594984029942e-05
8.25000e-09	5.4577696633527986e-05
8.50000e-09	5.6521366846750476e-05
8.75000e-09	5.846503705997298e-05
9.00000e-09	6.0408707273195484e-05
9.25000e-09	6.235237748641798e-05
9.50000e-09	6.433921094475683e-05
9.75000e-09	6.651092025281892e-05
1.00000e-08	6.8682629560881e-05
1.02500e-08	7.085433886894307e-05
1.05000e-08	7.302604817700517e-05
1.07500e-08	7.519775748506723e-05
1.10000e-08	7.741807514504069e-05
1.12500e-08	7.966030492415856e-05
1.15000e-08	8.190253470327642e-05
1.17500e-08	8.41447644823943e-05
1.20000e-08	8.638699426151217e-05
1.22500e-08	8.862922404063002e-05
1.25000e-08	9.08714538197479e-05
1.27500e-08	9.293085907742655e-05
1.30000e-08	9.490784901883196e-05
1.32500e-08	9.688483896023734e-05
1.35000e-08	9.886182890164273e-05
1.37500e-08	0.00010083881884304814
1.40000e-08	0.00010281580878445352
1.42500e-08	0.00010479279872585891
1.45000e-08	0.00010645235286322608
1.47500e-08	0.0001079688103744934
1.50000e-08	0.00010948526788576072
1.52500e-08	0.00011110057778516215
1.55000e-08	0.00011276044927164343
1.57500e-08	0.00011495587094005457
1.60000e-08	0.00011739271283632404
1.62500e-08	0.00012032734819037732
1.65000e-08	0.00012348638344953663
1.67500e-08	0.00012706219707424952
1.70000e-08	0.0001308258898769991
1.72500e-08	0.00013511925006465085
1.75000e-08	0.00013965137857890718
1.77500e-08	0.000144890661423344
1.80000e-08	0.0001504487217890731
1.82500e-08	0.00015661854790913652
1.85000e-08	0.00016306415141251649
1.87500e-08	0.00017011602738491318
1.90000e-08	0.00017744120442703736
1.92500e-08	0.00018476638146916154
1.95000e-08	0.00019286048471784368
1.97500e-08	0.00020130121158137447
2.00000e-08	0.00020974193844490525
2.02500e-08	0.00021891577072331685
2.05000e-08	0.0002284200789912367
2.07500e-08	0.00023792438725915658
2.10000e-08	0.00024742869552707653
2.12500e-08	0.0002569330037949964
2.15000e-08	0.00026651858500447725
2.17500e-08	0.0002764522726663365
2.20000e-08	0.0002863859603281956
2.22500e-08	0.00029631964799005476
2.25000e-08	0.000306253335651914
2.27500e-08	0.0003161870233137731
2.30000e-08	0.0003255277709924511
2.32500e-08	0.00033460122774177126
2.35000e-08	0.0003436746844910913
2.37500e-08	0.0003527481412404113
2.40000e-08	0.0003618215979897314
2.42500e-08	0.00036950105752622846
2.45000e-08	0.0003765521182009405
2.47500e-08	0.00038360317887565256
2.50000e-08	0.0003906542395503647
2.52500e-08	0.0003977053002250768
2.55000e-08	0.0004040828624988687
2.57500e-08	0.00041015681898015334
2.60000e-08	0.00041623077546143787
2.62500e-08	0.00042230473194272244
2.65000e-08	0.0004283786884240071
2.67500e-08	0.00043445264490529165
2.70000e-08	0.0004405266013865762
2.72500e-08	0.00044660055786786086
2.75000e-08	0.0004526745143491454
2.77500e-08	0.00045907165967386525
2.80000e-08	0.0004656144950326026
2.82500e-08	0.00047215733039133984
2.85000e-08	0.00047870016575007706
2.87500e-08	0.00048524300110881443
2.90000e-08	0.0004917858364675517
2.92500e-08	0.0004983286718262889
2.95000e-08	0.0005048715071850262
2.97500e-08	0.0005114143425437635
3.00000e-08	0.0005183943783280025
3.02500e-08	0.0005255714993339549
3.05000e-08	0.0005327486203399073
3.07500e-08	0.0005399257413458596
3.10000e-08	0.000547102862351812
3.12500e-08	0.0005542799833577644
3.15000e-08	0.0005614571043637168
3.17500e-08	0.0005686342253696692
3.20000e-08	0.0005758113463756215
3.22500e-08	0.0005828064238660698
3.25000e-08	0.0005890217766271879
3.27500e-08	0.0005952371293883059
3.30000e-08	0.0006014524821494242
3.32500e-08	0.0006076678349105422
3.35000e-08	0.0006138831876716602
3.37500e-08	0.0006200985404327783
3.40000e-08	0.0006263138931938963
3.42500e-08	0.0006325292459550143
3.45000e-08	0.0006387445987161326
3.47500e-08	0.0006439853384518828
3.50000e-08	0.0006487867331802056
3.52500e-08	0.0006535881279085284
3.55000e-08	0.0006583895226368512
3.57500e-08	0.0006631909173651741
3.60000e-08	0.000667992312093497
3.62500e-08	0.0006727937068218198
3.65000e-08	0.0006779532526358782
3.67500e-08	0.0006846468232000687
3.70000e-08	0.0006913403937642593
3.72500e-08	0.0006980339643284498
3.75000e-08	0.0007047275348926405
3.77500e-08	0.000711421105456831
3.80000e-08	0.0007181146760210216
3.82500e-08	0.0007248082465852121
3.85000e-08	0.0007332432874656664
3.87500e-08	0.0007424633643235993
3.90000e-08	0.0007516834411815326
3.92500e-08	0.0007609035180394654
3.95000e-08	0.0007701235948973984
3.97500e-08	0.0007793436717553314
4.00000e-08	0.0007885637486132644
4.02500e-08	0.0007988796492012535
4.05000e-08	0.000809689535270956
4.07500e-08	0.0008204994213406583
4.10000e-08	0.0008313093074103604
4.12500e-08	0.0008421191934800627
4.15000e-08	0.000852929079549765
4.17500e-08	0.0008637389656194672
4.20000e-08	0.0008747218646231821
4.22500e-08	0.0008857827559857101
4.25000e-08	0.0008968436473482382
4.27500e-08	0.0009075341114028393
4.30000e-08	0.0009180575908347069
4.32500e-08	0.0009285810702665745
4.35000e-08	0.0009384875230284366
4.37500e-08	0.000948115826843116
4.40000e-08	0.0009577441306577954
4.42500e-08	0.0009666184334184779
4.45000e-08	0.0009751528406616105
4.47500e-08	0.0009828518405750818
4.50000e-08	0.0009901742479026744
4.52500e-08	0.0009963479801823269
4.55000e-08	0.0010020039021779667
4.57500e-08	0.0010058560740156635
4.60000e-08	0.001008895134797063
4.62500e-08	0.0010119341955784622
4.65000e-08	0.0010127839665083336
4.67500e-08	0.0010126468292592215
4.70000e-08	0.0010125096920101094
4.72500e-08	0.0010089510170314608
4.75000e-08	0.001003849949862202
4.77500e-08	0.0009987488826929429
4.80000e-08	0.0009936478155236838
4.82500e-08	0.0009885467483544247
4.85000e-08	0.0009834456811851657
4.87500e-08	0.0009743082763528353
4.90000e-08	0.0009633513341714219
4.92500e-08	0.0009523943919900084
4.95000e-08	0.0009414374498085951
4.97500e-08	0.0009304805076271814
5.00000e-08	0.0009195235654457681
5.02500e-08	0.000905721983111321
5.05000e-08	0.0008906380677722546
5.07500e-08	0.0008755541524331883
5.10000e-08	0.0008604702370941219
5.12500e-08	0.000845386321755055
5.15000e-08	0.0008303024064159886
5.17500e-08	0.0008149915550256624
5.20000e-08	0.0007987086961971498
5.22500e-08	0.0007824258373686373
5.25000e-08	0.0007661429785401247
5.27500e-08	0.0007498601197116117
5.30000e-08	0.0007335772608830992
5.32500e-08	0.0007172944020545866
5.35000e-08	0.0007019453703531163
5.37500e-08	0.0006870172978173729
5.40000e-08	0.0006720892252816296
5.42500e-08	0.0006585970968592556
5.45000e-08	0.0006457522765076053
5.47500e-08	0.000632907456155955
5.50000e-08	0.0006214700937393985
5.52500e-08	0.0006106671981325926
5.55000e-08	0.0005998643025257867
5.57500e-08	0.000587992162646481
5.60000e-08	0.0005756380190173644
5.62500e-08	0.0005632838753882477
5.65000e-08	0.000550929731759131
5.67500e-08	0.0005385755881300143
5.70000e-08	0.0005262214445008977
5.72500e-08	0.0005138673008717806
5.75000e-08	0.0004992451272765563
5.77500e-08	0.00048360055031059206
5.80000e-08	0.0004679559733446278
5.82500e-08	0.00045231139637866356
5.85000e-08	0.00043666681941269926
5.87500e-08	0.00042102224244673457
5.90000e-08	0.0004053776654807703
5.92500e-08	0.0003879878935972974
5.95000e-08	0.00036981140672640256
5.97500e-08	0.00035163491985550776
6.00000e-08	0.0003323140927172048
6.02500e-08	0.0003124774093670563
6.05000e-08	0.00029264072601690674
6.07500e-08	0.0002728040426667583
6.10000e-08	0.000252520928745235
6.12500e-08	0.00023203656875210135
6.15000e-08	0.00021155220875896874
6.17500e-08	0.00019106784876583502
6.20000e-08	0.00017056032034871622
6.22500e-08	0.00015004234785672422
6.25000e-08	0.0001295243753647322
6.27500e-08	0.00010956084604433019
6.30000e-08	8.98472537071186e-05
6.32500e-08	7.066036729560767e-05
6.35000e-08	5.207056977076689e-05
6.37500e-08	3.404530345280836e-05
6.40000e-08	1.66886321704449e-05
6.42500e-08	1.2742366602543632e-07
6.45000e-08	-1.550972670102988e-05
6.47500e-08	-3.0094252356738256e-05
6.50000e-08	-4.350291846608438e-05
6.52500e-08	-5.5648426818750976e-05
6.55000e-08	-6.650028796918336e-05
6.57500e-08	-7.604911028715837e-05
6.60000e-08	-8.427374726897131e-05
6.62500e-08	-9.114559503436493e-05
6.65000e-08	-9.663532292461475e-05
6.67500e-08	-0.0001007136060761483
6.70000e-08	-0.00010335448028439042
6.72500e-08	-0.00010455449184271902
6.75000e-08	-0.00010434576469393367
6.77500e-08	-0.0001027736490902679
6.80000e-08	-9.987611159062905e-05
6.82500e-08	-9.56864716198204e-05
6.85000e-08	-9.023757737208375e-05
6.87500e-08	-8.356228255043346e-05
6.90000e-08	-7.569554172144819e-05
6.92500e-08	-6.668641427193268e-05
6.95000e-08	-5.6606246366181457e-05
6.97500e-08	-4.553465179786674e-05
7.00000e-08	-3.354662646965241e-05
7.02500e-08	-2.071424192389828e-05
7.05000e-08	-7.109273098283257e-06
7.07500e-08	7.196500288193055e-06
7.10000e-08	2.212999065117091e-05
7.12500e-08	3.760928314181627e-05
7.15000e-08	5.353850802440775e-05
7.17500e-08	6.989267253752823e-05
7.20000e-08	8.63797469276984e-05
7.22500e-08	0.00010302627077828385
7.25000e-08	0.00011974467272053075
7.27500e-08	0.00013646307466277677
7.30000e-08	0.00015283111165774794
7.32500e-08	0.00016904120792511035
7.35000e-08	0.00018525130419247193
7.37500e-08	0.0002006693108444629
7.40000e-08	0.00021573025206751725
7.42500e-08	0.00022979674983427404
7.45000e-08	0.00024341496324988484
7.47500e-08	0.0002557668005404533
7.50000e-08	0.000267547769174865
7.52500e-08	0.00027899985618811676
7.55000e-08	0.0002903036869247439
7.57500e-08	0.00030160751766137054
7.60000e-08	0.00031404590072093154
7.62500e-08	0.00032699572769286973
7.65000e-08	0.0003399455546648073
7.67500e-08	0.00035350901805032177
7.70000e-08	0.0003673491020921003
7.72500e-08	0.0003811891861338795
7.75000e-08	0.0003965493086970054
7.77500e-08	0.0004125946481801523
7.80000e-08	0.00042863998766329915
7.82500e-08	0.0004463055955565661
7.85000e-08	0.00046470160291931927
7.87500e-08	0.00048309761028207145
7.90000e-08	0.000502569285158862
7.92500e-08	0.0005225258593132589
7.95000e-08	0.0005424824334676547
7.97500e-08	0.0005641231933992303
8.00000e-08	0.0005865231660578334
8.02500e-08	0.0006089231387164378
8.05000e-08	0.000631323111375041
8.07500e-08	0.0006537230840336454
8.10000e-08	0.0006769433783838366
8.12500e-08	0.0007005334648774764
8.15000e-08	0.0007241235513711176
8.17500e-08	0.0007477136378647574
8.20000e-08	0.0007713037243583987
8.22500e-08	0.0007948553705599173
8.25000e-08	0.0008183896882936372
8.27500e-08	0.0008413615243705443
8.30000e-08	0.0008640797998020867
8.32500e-08	0.0008861981001492135
8.35000e-08	0.0009076303609876525
8.37500e-08	0.0009284074287190082
8.40000e-08	0.000948406837720044
8.42500e-08	0.0009670943840683836
8.45000e-08	0.0009853057276268888
8.47500e-08	0.0010017743790776508
8.50000e-08	0.001017457443780549
8.52500e-08	0.0010312964497145582
8.55000e-08	0.0010443041739065517
8.57500e-08	0.0010556783963206304
8.60000e-08	0.0010663162538061925
8.62500e-08	0.00107475739898533
8.65000e-08	0.0010822082900231117
8.67500e-08	0.0010896591810608937
8.70000e-08	0.001094317463714583
8.72500e-08	0.0010977168687221438
8.75000e-08	0.001101116273729705
8.77500e-08	0.0011009314621943374
8.80000e-08	0.001099130924619301
8.82500e-08	0.0010973303870442648
8.85000e-08	0.0010955298494692285
8.87500e-08	0.0010937293118941922
8.90000e-08	0.0010919287743191561
8.92500e-08	0.0010861564343173373
8.95000e-08	0.001078593648752726
8.97500e-08	0.0010710308631881147
9.00000e-08	0.0010634680776235033
9.02500e-08	0.001055905292058892
9.05000e-08	0.0010483425064942806
9.07500e-08	0.0010382423698952457
9.10000e-08	0.0010269984229016654
9.12500e-08	0.001015754475908086
9.15000e-08	0.0010045105289145056
9.17500e-08	0.0009932665819209255
9.20000e-08	0.0009820226349273459
9.22500e-08	0.0009706392227337999
9.25000e-08	0.0009586584563033032
9.27500e-08	0.0009466776898728061
9.30000e-08	0.0009346969234423088
9.32500e-08	0.0009227161570118123
9.35000e-08	0.000910735390581315
9.37500e-08	0.0008987546241508185
9.40000e-08	0.000887862644924915
9.42500e-08	0.0008774614791911807
9.45000e-08	0.000867060313457446
9.47500e-08	0.0008593165336906444
9.50000e-08	0.0008527706747672988
9.52500e-08	0.0008462248158439529
9.55000e-08	0.0008396789569206074
9.57500e-08	0.0008331330979972615
9.60000e-08	0.0008265872390739156
9.62500e-08	0.0008200413801505701
9.65000e-08	0.0008134955212272242
9.67500e-08	0.0008110245800151891
9.70000e-08	0.0008103905676206044
9.72500e-08	0.0008097565552260197
9.75000e-08	0.000809122542831435
9.77500e-08	0.0008084885304368503
9.80000e-08	0.0008078545180422657
9.82500e-08	0.0008072205056476808
9.85000e-08	0.0008065864932530962
9.87500e-08	0.0008093346107020178
9.90000e-08	0.0008136073556929028
9.92500e-08	0.0008178801006837881
9.95000e-08	0.0008221528456746733
9.97500e-08	0.0008264255906655584
1.00000e-07	0.0008306983356564437
1.00250e-07	0.0008349710806473288
1.00500e-07	0.0008397700545509988
1.00750e-07	0.0008468229604085618
1.01000e-07	0.0008538758662661245
1.01250e-07	0.0008609287721236875
1.01500e-07	0.0008679816779812502
1.01750e-07	0.0008750345838388132
1.02000e-07	0.0008820874896963759
1.02250e-07	0.000889140395553939
1.02500e-07	0.0008965800046250431
1.02750e-07	0.0009041939353210433
1.03000e-07	0.0009118078660170439
1.03250e-07	0.0009191853346857705
1.03500e-07	0.0009264562088309009
1.03750e-07	0.0009337270829760312
1.04000e-07	0.0009404070895895183
1.04250e-07	0.0009468207395123759
1.04500e-07	0.0009532343894352333
1.04750e-07	0.0009587190288539021
1.05000e-07	0.0009637848803883082
1.05250e-07	0.0009688507319227145
1.05500e-07	0.0009725781476657337
1.05750e-07	0.0009757022110346203
1.06000e-07	0.000978826274403507
1.06250e-07	0.000979440367300405
1.06500e-07	0.0009789229926640657
1.06750e-07	0.0009784056180277263
1.07000e-07	0.000977888243391387
1.07250e-07	0.0009773708687550477
1.07500e-07	0.0009768534941187086
1.07750e-07	0.0009763361194823692
1.08000e-07	0.0009724076711539625
1.08250e-07	0.0009669415477098011
1.08500e-07	0.0009614754242656398
1.08750e-07	0.0009560093008214788
1.09000e-07	0.0009505431773773175
1.09250e-07	0.0009450770539331564
1.09500e-07	0.0009396109304889951
1.09750e-07	0.0009315388895456307
1.10000e-07	0.0009222921291872181
1.10250e-07	0.0009130453688288051
1.10500e-07	0.0009037986084703925
1.10750e-07	0.0008945518481119793
1.11000e-07	0.0008853050877535668
1.11250e-07	0.0008760583273951536
1.11500e-07	0.0008665567076613617
1.11750e-07	0.0008559634799296774
1.12000e-07	0.0008453702521979927
1.12250e-07	0.0008347770244663084
1.12500e-07	0.0008241837967346235
1.12750e-07	0.0008135905690029393
1.13000e-07	0.0008029973412712545
1.13250e-07	0.0007924041135395697
1.13500e-07	0.0007823927099809597
1.13750e-07	0.0007726435864647775
1.14000e-07	0.000762894462948596
1.14250e-07	0.0007553584402658601
1.14500e-07	0.000748820059495161
1.14750e-07	0.0007422816787244624
1.15000e-07	0.0007357432979537634
1.15250e-07	0.0007292049171830647
1.15500e-07	0.0007226665364123657
1.15750e-07	0.000716128155641667
1.16000e-07	0.000709589774870968
1.16250e-07	0.0007030513941002689
1.16500e-07	0.0006974758785472419
1.16750e-07	0.0006960244858401701
1.17000e-07	0.0006945730931330983
1.17250e-07	0.0006931217004260265
1.17500e-07	0.0006916703077189547
1.17750e-07	0.000690218915011883
1.18000e-07	0.0006887675223048111
1.18250e-07	0.0006873161295977394
1.18500e-07	0.0006858647368906676
1.18750e-07	0.0006844133441835958
1.19000e-07	0.0006856809392438997
1.19250e-07	0.0006881742245728339
1.19500e-07	0.000690667509901768
1.19750e-07	0.000693160795230702
1.20000e-07	0.0006956540805596363
1.20250e-07	0.0006981473658885704
1.20500e-07	0.0007006406512175044
1.20750e-07	0.0007031339365464387
1.21000e-07	0.0007056272218753728
1.21250e-07	0.0007084342869541546
1.21500e-07	0.0007125853264659043
1.21750e-07	0.0007167363659776543
1.22000e-07	0.0007208874054894039
1.22250e-07	0.0007250384450011534
1.22500e-07	0.0007291894845129035
1.22750e-07	0.0007333405240246532
1.23000e-07	0.0007374915635364027
1.23250e-07	0.0007416426030481524
1.23500e-07	0.0007457936425599023
1.23750e-07	0.000749680968779991
1.24000e-07	0.0007534494159013301
1.24250e-07	0.0007572178630226696
1.24500e-07	0.0007608631748864364
1.24750e-07	0.0007639810765586464
1.25000e-07	0.0007670989782308568
1.25250e-07	0.0007702168799030669
1.25500e-07	0.0007743221897002017
1.25750e-07	0.0007788726123972192
1.26000e-07	0.0007834230350942373
1.26250e-07	0.0007895155764442096
1.26500e-07	0.0007963032881986509
1.26750e-07	0.0008030909999530929
1.27000e-07	0.0008112714183493641
1.27250e-07	0.0008200796538319873
1.27500e-07	0.0008288878893146105
1.27750e-07	0.0008403195680785018
1.28000e-07	0.0008529338666903812
1.28250e-07	0.0008655481653022605
1.28500e-07	0.0008781624639141413
1.28750e-07	0.0008907767625260206
1.29000e-07	0.0009060339285155656
1.29250e-07	0.0009224824705256048
1.29500e-07	0.0009389310125356455
1.29750e-07	0.0009553795545456847
1.30000e-07	0.0009718280965557238
1.30250e-07	0.0009900099971036369
1.30500e-07	0.001008973276927099
1.30750e-07	0.0010279365567505611
1.31000e-07	0.0010474390411447842
1.31250e-07	0.0010671845931258183
1.31500e-07	0.0010871911747911628
1.31750e-07	0.001107459301075079
1.32000e-07	0.0011278540716919455
1.32250e-07	0.0011482523816297439
1.32500e-07	0.0011685291567626445
1.32750e-07	0.001188559330862441
1.33000e-07	0.0012082246142649665
1.33250e-07	0.0012274415319328742
1.33500e-07	0.0012461617160387265
1.33750e-07	0.0012643142308329427
1.34000e-07	0.0012817846960070539
1.34250e-07	0.0012984426678017001
1.34500e-07	0.0013141568455291095
1.34750e-07	0.0013287958245658785
1.35000e-07	0.0013421638613937796
1.35250e-07	0.001353735845564322
1.35500e-07	0.0013626890659321782
1.35750e-07	0.0013684740343295162
1.36000e-07	0.0013709964481344017
1.36250e-07	0.001370323139502702
1.36500e-07	0.0013665328051919723
1.36750e-07	0.0013597041419597675
1.37000e-07	0.0013498757251857894
1.37250e-07	0.0013356229521791622
1.37500e-07	0.0013197950086082503
1.37750e-07	0.0012989166662359345
1.38000e-07	0.0012757616587245548
1.38250e-07	0.0012480097844670254
1.38500e-07	0.0012181856924141485
1.38750e-07	0.001184332250504849
1.39000e-07	0.0011486624212740935
1.39250e-07	0.001109187560810496
1.39500e-07	0.001067997433434029
1.39750e-07	0.001022344056873448
1.40000e-07	0.0009746786958688767
1.40250e-07	0.0009270133348643056
1.40500e-07	0.0008755066194061365
1.40750e-07	0.0008222682629201736
1.41000e-07	0.0007690299064342107
1.41250e-07	0.0007134064811465931
1.41500e-07	0.0006567078926474087
1.41750e-07	0.0006000093041482301
1.42000e-07	0.0005423905184741955
1.42250e-07	0.00048435691786940675
1.42500e-07	0.00042632331726462423
1.42750e-07	0.0003690729628548443
1.43000e-07	0.0003121756873557761
1.43250e-07	0.00025639234179141904
1.43500e-07	0.00020207036569166745
1.43750e-07	0.00014934953218418462
1.44000e-07	9.857981086430855e-05
1.44250e-07	5.0135923910278104e-05
1.44500e-07	4.394389590691168e-06
1.44750e-07	-3.826832712194851e-05
1.45000e-07	-7.750002105999792e-05
1.45250e-07	-0.00011309920132716827
1.45500e-07	-0.0001450748404693476
1.45750e-07	-0.00017346645808195222
1.46000e-07	-0.00019822111014578805
