Time(s)	Current(A)
1.00000e-06	0.01448810261580699
1.00025e-06	0.014475686446222059
1.00050e-06	0.01446093926369388
1.00075e-06	0.01444619208116569
1.00100e-06	0.014426912604697778
1.00125e-06	0.014401235324913626
1.00150e-06	0.014375558045129494
1.00175e-06	0.014349880765345364
1.00200e-06	0.014324203485561212
1.00225e-06	0.01429852620577708
1.00250e-06	0.014272848925992928
1.00275e-06	0.014231956118403302
1.00300e-06	0.01418964369807179
1.00325e-06	0.014147331277740241
1.00350e-06	0.01410501885740873
1.00375e-06	0.014062706437077181
1.00400e-06	0.01402039401674567
1.00425e-06	0.013971701303556228
1.00450e-06	0.013914002144768501
1.00475e-06	0.013856302985980774
1.00500e-06	0.013798603827192998
1.00525e-06	0.01374090466840527
1.00550e-06	0.013683205509617494
1.00575e-06	0.013625506350829767
1.00600e-06	0.01356780719204204
1.00625e-06	0.013507948492846958
1.00650e-06	0.013445041378221981
1.00675e-06	0.01338213426359695
1.00700e-06	0.013319227148971973
1.00725e-06	0.013256320034346996
1.00750e-06	0.013193412919721967
1.00775e-06	0.01313050580509699
1.00800e-06	0.013067598690471959
1.00825e-06	0.013007027473571778
1.00850e-06	0.012949753618759793
1.00875e-06	0.012892479763947758
1.00900e-06	0.01284096078493681
1.00925e-06	0.012797565410434319
1.00950e-06	0.012754170035931864
1.00975e-06	0.012710774661429372
1.01000e-06	0.012667379286926917
1.01025e-06	0.012623983912424464
1.01050e-06	0.012580588537921973
1.01075e-06	0.012546612299246855
1.01100e-06	0.012525932148431418
1.01125e-06	0.012505251997615999
1.01150e-06	0.012484571846800581
1.01175e-06	0.012463891695985144
1.01200e-06	0.012443211545169726
1.01225e-06	0.01242253139435429
1.01250e-06	0.012411651230257302
1.01275e-06	0.012414604764582265
1.01300e-06	0.012417558298907231
1.01325e-06	0.012420511833232195
1.01350e-06	0.012423465367557162
1.01375e-06	0.012426418901882126
1.01400e-06	0.012429372436207092
1.01425e-06	0.012432325970532057
1.01450e-06	0.01243527950485702
1.01475e-06	0.012445653477134362
1.01500e-06	0.01246650216776999
1.01525e-06	0.012487350858405636
1.01550e-06	0.012508199549041263
1.01575e-06	0.012529048239676892
1.01600e-06	0.012549896930312538
1.01625e-06	0.012570745620948166
1.01650e-06	0.012591594311583812
1.01675e-06	0.012612443002219441
1.01700e-06	0.012635264663526094
1.01725e-06	0.012660789417607541
1.01750e-06	0.01268619847649018
1.01775e-06	0.01271160753537284
1.01800e-06	0.012737016594255477
1.01825e-06	0.012762425653138136
1.01850e-06	0.012787834712020775
1.01875e-06	0.012813243770903414
1.01900e-06	0.0128319748876759
1.01925e-06	0.01285008295069514
1.01950e-06	0.012868191013714395
1.01975e-06	0.012886299076733635
1.02000e-06	0.012904407139752876
1.02025e-06	0.012922515202772131
1.02050e-06	0.012931933013893995
1.02075e-06	0.012929083632476955
1.02100e-06	0.01292623425105992
1.02125e-06	0.012923384869642883
1.02150e-06	0.012920535488225846
1.02175e-06	0.01291768610680881
1.02200e-06	0.012904255801254417
1.02225e-06	0.012875889423056348
1.02250e-06	0.012847523044858257
1.02275e-06	0.01281915666666019
1.02300e-06	0.012790790288462122
1.02325e-06	0.012762423910264031
1.02350e-06	0.012723262417460999
1.02375e-06	0.01266886249993789
1.02400e-06	0.012614462582414826
1.02425e-06	0.012560062664891763
1.02450e-06	0.012505662747368654
1.02475e-06	0.012451262829845591
1.02500e-06	0.012396862912322483
1.02525e-06	0.012342462994799418
1.02550e-06	0.012272156515175046
1.02575e-06	0.012200365949127948
1.02600e-06	0.012128575383080912
1.02625e-06	0.012056784817033815
1.02650e-06	0.011984994250986777
1.02675e-06	0.01191320368493968
1.02700e-06	0.011841413118892643
1.02725e-06	0.01176868072753343
1.02750e-06	0.011694618851991362
1.02775e-06	0.011620556976449358
1.02800e-06	0.011548127886465722
1.02825e-06	0.011478003642769193
1.02850e-06	0.011407879399072661
1.02875e-06	0.011340821326869007
1.02900e-06	0.011278091473974065
1.02925e-06	0.01121536162107907
1.02950e-06	0.011161477976928576
1.02975e-06	0.011120081674593172
1.03000e-06	0.011078685372257731
1.03025e-06	0.011037289069922327
1.03050e-06	0.010995892767586888
1.03075e-06	0.010954496465251483
1.03100e-06	0.010913100162916044
1.03125e-06	0.010871703860580638
1.03150e-06	0.010830307558245234
1.03175e-06	0.010815667312592139
1.03200e-06	0.010803523414055964
1.03225e-06	0.010791379515519776
1.03250e-06	0.0107792356169836
1.03275e-06	0.010767091718447423
1.03300e-06	0.010754947819911235
1.03325e-06	0.01074280392137506
1.03350e-06	0.010730660022838873
1.03375e-06	0.010729283830830385
1.03400e-06	0.010743107374195187
1.03425e-06	0.010756930917560002
1.03450e-06	0.010770754460924804
1.03475e-06	0.010784578004289619
1.03500e-06	0.010798401547654423
1.03525e-06	0.010812225091019237
1.03550e-06	0.01082604863438404
1.03575e-06	0.010839872177748842
1.03600e-06	0.010853695721113658
1.03625e-06	0.01086751926447846
1.03650e-06	0.010881342807843275
1.03675e-06	0.01089870147869207
1.03700e-06	0.010921050348904905
1.03725e-06	0.010943399219117756
1.03750e-06	0.010965748089330589
1.03775e-06	0.010988096959543442
1.03800e-06	0.011010445829756275
1.03825e-06	0.011032794699969107
1.03850e-06	0.011055143570181959
1.03875e-06	0.011077492440394793
1.03900e-06	0.011099841310607645
1.03925e-06	0.011122190180820477
1.03950e-06	0.01114453905103333
1.03975e-06	0.011164164455788522
1.04000e-06	0.011179945406374523
1.04025e-06	0.011195726356960537
1.04050e-06	0.011213116164847277
1.04075e-06	0.011232777041801596
1.04100e-06	0.0112524379187559
1.04125e-06	0.011272098795710206
1.04150e-06	0.011291759672664525
1.04175e-06	0.011311420549618829
1.04200e-06	0.01133108142657315
1.04225e-06	0.011350742303527454
1.04250e-06	0.01137040318048176
1.04275e-06	0.011397831081700087
1.04300e-06	0.01142598364832237
1.04325e-06	0.011454136214944679
1.04350e-06	0.011482288781566962
1.04375e-06	0.011510441348189246
1.04400e-06	0.011538593914811553
1.04425e-06	0.011566746481433837
1.04450e-06	0.011594899048056145
1.04475e-06	0.01162610954276282
1.04500e-06	0.011661636620351017
1.04525e-06	0.011697163697939186
1.04550e-06	0.011732690775527353
1.04575e-06	0.011768217853115551
1.04600e-06	0.01180374493070372
1.04625e-06	0.011839272008291917
1.04650e-06	0.011874799085880086
1.04675e-06	0.011910326163468253
1.04700e-06	0.011945853241056452
1.04725e-06	0.011981380318644621
1.04750e-06	0.012014343907458555
1.04775e-06	0.012043688865796424
1.04800e-06	0.012073033824134296
1.04825e-06	0.012102378782472192
1.04850e-06	0.012131723740810061
1.04875e-06	0.012161068699147957
1.04900e-06	0.012190413657485827
1.04925e-06	0.012219758615823723
1.04950e-06	0.012249103574161594
1.04975e-06	0.012278448532499464
1.05000e-06	0.01230779349083736
1.05025e-06	0.012331104244462758
1.05050e-06	0.012345897091830848
1.05075e-06	0.012360689939198926
1.05100e-06	0.012375482786567004
1.05125e-06	0.012390275633935095
1.05150e-06	0.012405068481303173
1.05175e-06	0.012419861328671263
1.05200e-06	0.012434654176039341
1.05225e-06	0.012449447023407419
1.05250e-06	0.01245998873771822
1.05275e-06	0.011325347719145467
1.05300e-06	0.003938451231900315
1.05325e-06	-0.0012425948037183112
1.05350e-06	0.0001753350209569768
1.05375e-06	0.0026578178163436062
1.05400e-06	0.008795072584732787
1.05425e-06	0.013395997736751637
1.05450e-06	0.013596568657670316
1.05475e-06	0.012664022832808998
1.05500e-06	0.008030522577383533
1.05525e-06	0.004653746912598992
1.05550e-06	0.0053705557753746845
1.05575e-06	0.005911885506529181
1.05600e-06	0.009606834562303199
1.05625e-06	0.013150556809403715
1.05650e-06	0.014445390378600481
1.05675e-06	0.013782458338583816
1.05700e-06	0.011338603826182507
1.05725e-06	0.009176701603896187
1.05750e-06	0.00867006024362916
1.05775e-06	0.009579542722473928
1.05800e-06	0.011595845877469627
1.05825e-06	0.013426565395799442
1.05850e-06	0.014178851976680245
1.05875e-06	0.013743152540614964
1.05900e-06	0.012194171024693723
1.05925e-06	0.010823867728873405
1.05950e-06	0.010492197678094827
1.05975e-06	0.011049082322361367
1.06000e-06	0.012300692613726042
1.06025e-06	0.013437862023329417
1.06050e-06	0.013901906465319056
1.06075e-06	0.013624429451517777
1.06100e-06	0.012652136466469824
1.06125e-06	0.01179414681811511
1.06150e-06	0.011588920613757492
1.06175e-06	0.011942223027918626
1.06200e-06	0.012732435831061432
1.06225e-06	0.013452526857119482
1.06250e-06	0.013752414227832126
1.06275e-06	0.013589151620838232
1.06300e-06	0.012991901226047283
1.06325e-06	0.012467378099717439
1.06350e-06	0.012352720766494966
1.06375e-06	0.012588743100126514
1.06400e-06	0.013099108784603842
1.06425e-06	0.01356608290180038
1.06450e-06	0.013770269495789094
1.06475e-06	0.0136846757544521
1.06500e-06	0.013327477224660577
1.06525e-06	0.01301597623100686
1.06550e-06	0.012961228978097896
1.06575e-06	0.013126024327713428
1.06600e-06	0.013462418485660398
1.06625e-06	0.013771263927627377
1.06650e-06	0.013915029829207885
1.06675e-06	0.013876712223903397
1.06700e-06	0.013667604075122183
1.06725e-06	0.013486359479177309
1.06750e-06	0.013465067442184543
1.06775e-06	0.01358029594335602
1.06800e-06	0.013801892663564316
1.06825e-06	0.014005000888869612
1.06850e-06	0.014103368198078224
1.06875e-06	0.014086246781208242
1.06900e-06	0.01396061142276134
1.06925e-06	0.013850795961527955
1.06950e-06	0.013839427811352676
1.06975e-06	0.013911714010860625
1.07000e-06	0.014048710979777699
1.07025e-06	0.01417234254742192
1.07050e-06	0.014228842935557592
1.07075e-06	0.01421166807103613
1.07100e-06	0.014135165054233586
1.07125e-06	0.014049542516352377
1.07150e-06	0.01403058178252476
1.07175e-06	0.014064895295046578
1.07200e-06	0.014131105571537954
1.07225e-06	0.01420194848582123
1.07250e-06	0.014225200548098118
1.07275e-06	0.01420009606693488
1.07300e-06	0.014136936356167206
1.07325e-06	0.014067915108839878
1.07350e-06	0.014039996863059179
1.07375e-06	0.01404496510265749
1.07400e-06	0.01406942735758804
1.07425e-06	0.014096711383733997
1.07450e-06	0.014093891439977514
1.07475e-06	0.014060613561745688
1.07500e-06	0.014003436564245273
1.07525e-06	0.0139425802219296
1.07550e-06	0.013907552618577464
1.07575e-06	0.013893274784693679
1.07600e-06	0.013891556923029862
1.07625e-06	0.013891668681738816
1.07650e-06	0.013873369289666511
1.07675e-06	0.013836457836248945
1.07700e-06	0.013785345167284321
1.07725e-06	0.0137320614088228
1.07750e-06	0.013695776224838245
1.07775e-06	0.013673273788571723
1.07800e-06	0.013659820106499203
1.07825e-06	0.013647716172658213
1.07850e-06	0.013625264414224666
1.07875e-06	0.013592254021776858
1.07900e-06	0.013551949294143233
1.07925e-06	0.01351055992194346
1.07950e-06	0.01348137472461235
1.07975e-06	0.013462239742987124
1.08000e-06	0.013449483753703754
1.08025e-06	0.013437668529860884
1.08050e-06	0.013417004781164445
1.08075e-06	0.013386699246959448
1.08100e-06	0.01334774780685922
1.08125e-06	0.013307428989958967
1.08150e-06	0.013271458064172561
1.08175e-06	0.013239143303547793
1.08200e-06	0.013207713680515761
1.08225e-06	0.013176349995831697
1.08250e-06	0.013137005020640217
1.08275e-06	0.013089718470247766
1.08300e-06	0.013034877050979887
1.08325e-06	0.012978821210875069
1.08350e-06	0.01292436467591129
1.08375e-06	0.012870215253116709
1.08400e-06	0.012815728702736161
1.08425e-06	0.012761177414250634
1.08450e-06	0.012698757731981031
1.08475e-06	0.012634827093846552
1.08500e-06	0.012564639086452188
1.08525e-06	0.012493249485817553
1.08550e-06	0.012423146673442565
1.08575e-06	0.012353290961088323
1.08600e-06	0.012284082158678851
1.08625e-06	0.01221499758141645
1.08650e-06	0.012142414377665557
1.08675e-06	0.012069159337914028
1.08700e-06	0.01199398896032492
1.08725e-06	0.011918450783281721
1.08750e-06	0.011847304119500485
1.08775e-06	0.011777000751428712
1.08800e-06	0.011706697383356996
1.08825e-06	0.011640135623649033
1.08850e-06	0.011574292359387152
1.08875e-06	0.011508449095125215
1.08900e-06	0.011447728763843399
1.08925e-06	0.011387992181703272
1.08950e-06	0.011328255599563094
1.08975e-06	0.011287091543343349
1.09000e-06	0.01124949394143873
1.09025e-06	0.011211896339534143
1.09050e-06	0.011174298737629556
1.09075e-06	0.011136701135724937
1.09100e-06	0.011099103533820352
1.09125e-06	0.011061505931915733
1.09150e-06	0.011023908330011146
1.09175e-06	0.01099644184926299
1.09200e-06	0.010988737839358402
1.09225e-06	0.010981033829453821
1.09250e-06	0.010973329819549234
1.09275e-06	0.010965625809644653
1.09300e-06	0.010957921799740065
1.09325e-06	0.010950217789835483
1.09350e-06	0.010942513779930902
1.09375e-06	0.010934809770026314
1.09400e-06	0.010949549319822359
1.09425e-06	0.010968598672748131
1.09450e-06	0.010987648025673888
1.09475e-06	0.011006697378599644
1.09500e-06	0.011025746731525416
1.09525e-06	0.01104479608445117
1.09550e-06	0.011063845437376943
1.09575e-06	0.0110828947903027
1.09600e-06	0.011101944143228456
1.09625e-06	0.011120993496154228
1.09650e-06	0.011140042849079983
1.09675e-06	0.011161758926449711
1.09700e-06	0.011188676902331537
1.09725e-06	0.011215594878213386
1.09750e-06	0.011242512854095213
1.09775e-06	0.011269430829977039
1.09800e-06	0.011296348805858888
1.09825e-06	0.011323266781740714
1.09850e-06	0.011350184757622563
1.09875e-06	0.01137710273350439
1.09900e-06	0.011404020709386216
1.09925e-06	0.011430938685268064
1.09950e-06	0.01145785666114989
1.09975e-06	0.01147819161450512
1.10000e-06	0.011497262439911603
1.10025e-06	0.011516333265318087
1.10050e-06	0.011535404090724587
1.10075e-06	0.011554474916131069
1.10100e-06	0.011573545741537569
1.10125e-06	0.011592616566944053
1.10150e-06	0.011614839236713765
1.10175e-06	0.01163766715043233
1.10200e-06	0.011660495064150895
1.10225e-06	0.011683322977869478
1.10250e-06	0.011706150891588041
1.10275e-06	0.011728978805306624
1.10300e-06	0.01175180671902519
1.10325e-06	0.011781911152023724
1.10350e-06	0.011813412884113054
1.10375e-06	0.011844914616202356
1.10400e-06	0.011876416348291686
1.10425e-06	0.011907918080380988
1.10450e-06	0.011939419812470292
1.10475e-06	0.011970921544559622
1.10500e-06	0.012002423276648924
1.10525e-06	0.012033925008738254
1.10550e-06	0.012065426740827556
1.10575e-06	0.012096928472916886
1.10600e-06	0.012130852992130122
1.10625e-06	0.012165242755523309
1.10650e-06	0.012199632518916523
1.10675e-06	0.012234022282309708
1.10700e-06	0.012268412045702922
1.10725e-06	0.012302801809096108
1.10750e-06	0.012337191572489293
1.10775e-06	0.012371581335882507
1.10800e-06	0.012405971099275692
1.10825e-06	0.012440360862668908
1.10850e-06	0.012474750626062093
1.10875e-06	0.012498997867145407
1.10900e-06	0.01252129745487202
1.10925e-06	0.012543597042598612
1.10950e-06	0.012565896630325226
1.10975e-06	0.012588196218051819
1.11000e-06	0.012610495805778433
1.11025e-06	0.012632795393505026
1.11050e-06	0.01265509498123162
1.11075e-06	0.012677394568958233
1.11100e-06	0.012699694156684826
1.11125e-06	0.01272199374441144
1.11150e-06	0.012741618154274584
1.11175e-06	0.012756024175797022
1.11200e-06	0.012770430197319473
1.11225e-06	0.01278483621884191
1.11250e-06	0.012799242240364363
1.11275e-06	0.0128136482618868
1.11300e-06	0.012828054283409239
1.11325e-06	0.01284246030493169
1.11350e-06	0.012856866326454127
1.11375e-06	0.01287127234797658
1.11400e-06	0.012885678369499018
1.11425e-06	0.012900084391021468
1.11450e-06	0.012912271003059706
1.11475e-06	0.012924031425221354
1.11500e-06	0.01293579184738301
1.11525e-06	0.012947552269544657
1.11550e-06	0.012959312691706314
1.11575e-06	0.012971073113867962
1.11600e-06	0.012982833536029609
1.11625e-06	0.012994593958191265
1.11650e-06	0.013006354380352912
1.11675e-06	0.01301811480251457
1.11700e-06	0.013029875224676217
1.11725e-06	0.013041635646837862
1.11750e-06	0.01305339606899952
1.11775e-06	0.013065156491161167
1.11800e-06	0.013076916913322823
1.11825e-06	0.01308867733548447
1.11850e-06	0.013100437757646128
1.11875e-06	0.013109300074768595
1.11900e-06	0.013112509146268554
1.11925e-06	0.013115718217768519
1.11950e-06	0.01311892728926848
1.11975e-06	0.013122136360768442
1.12000e-06	0.013125345432268403
1.12025e-06	0.013128554503768364
1.12050e-06	0.013131763575268329
1.12075e-06	0.013134972646768288
1.12100e-06	0.013138181718268253
1.12125e-06	0.013141390789768214
1.12150e-06	0.013144599861268175
1.12175e-06	0.013147808932768137
1.12200e-06	0.013151018004268098
1.12225e-06	0.013154227075768063
1.12250e-06	0.013157436147268022
1.12275e-06	0.013160645218767983
1.12300e-06	0.013163854290267948
1.12325e-06	0.013159917105206038
1.12350e-06	0.01315460763520815
1.12375e-06	0.013149298165210268
1.12400e-06	0.013143988695212381
1.12425e-06	0.013138679225214498
1.12450e-06	0.013133369755216616
1.12475e-06	0.013128060285218728
1.12500e-06	0.013122750815220845
1.12525e-06	0.013117441345222958
1.12550e-06	0.013112131875225076
1.12575e-06	0.013106822405227193
1.12600e-06	0.013101512935229305
1.12625e-06	0.013096203465231422
1.12650e-06	0.013088979048041995
1.12675e-06	0.01308138690641373
1.12700e-06	0.013073794764785464
1.12725e-06	0.013066202623157191
1.12750e-06	0.013058610481528926
1.12775e-06	0.013051018339900654
1.12800e-06	0.013043426198272388
1.12825e-06	0.013035834056644118
1.12850e-06	0.013028241915015852
1.12875e-06	0.013020649773387587
1.12900e-06	0.013013057631759315
1.12925e-06	0.01300546549013105
1.12950e-06	0.012997873348502777
1.12975e-06	0.01298815755049225
1.13000e-06	0.012978033949929836
1.13025e-06	0.012967910349367413
1.13050e-06	0.012957786748804998
1.13075e-06	0.012947663148242576
1.13100e-06	0.012937539547680161
1.13125e-06	0.012927415947117748
1.13150e-06	0.012912794605995061
1.13175e-06	0.01288939965874438
1.13200e-06	0.012866004711493677
1.13225e-06	0.012842609764242993
1.13250e-06	0.01281921481699229
1.13275e-06	0.012795819869741609
1.13300e-06	0.012772424922490925
1.13325e-06	0.012749029975240224
1.13350e-06	0.01271222386083717
1.13375e-06	0.012672842420108235
1.13400e-06	0.012633460979379332
1.13425e-06	0.01259407953865043
1.13450e-06	0.012554698097921493
1.13475e-06	0.01251531665719259
1.13500e-06	0.012475935216463653
1.13525e-06	0.01243655377573475
1.13550e-06	0.012397172335005847
1.13575e-06	0.012357790894276912
1.13600e-06	0.012312336000472374
1.13625e-06	0.0122657148305774
1.13650e-06	0.012219093660682467
1.13675e-06	0.012172472490787494
1.13700e-06	0.012125851320892559
1.13725e-06	0.012079230150997626
1.13750e-06	0.012032608981102652
1.13775e-06	0.011985987811207719
1.13800e-06	0.011939366641312746
1.13825e-06	0.011892745471417812
1.13850e-06	0.01185354810655968
1.13875e-06	0.011815776323854886
1.13900e-06	0.011778004541150123
1.13925e-06	0.011740232758445329
1.13950e-06	0.011702460975740568
1.13975e-06	0.011664689193035805
1.14000e-06	0.011626917410331011
1.14025e-06	0.01161044231374454
1.14050e-06	0.0115980567878708
1.14075e-06	0.01158567126199707
1.14100e-06	0.011573285736123332
1.14125e-06	0.011560900210249601
1.14150e-06	0.011548514684375873
1.14175e-06	0.011536129158502132
1.14200e-06	0.01155436856073483
1.14225e-06	0.011578488822006645
1.14250e-06	0.011602609083278438
1.14275e-06	0.011626729344550231
1.14300e-06	0.011650849605822045
1.14325e-06	0.011674969867093838
1.14350e-06	0.011699090128365652
1.14375e-06	0.011734402072759702
1.14400e-06	0.01179154529405856
1.14425e-06	0.011848688515357465
1.14450e-06	0.011905831736656321
1.14475e-06	0.011962974957955227
1.14500e-06	0.012020118179254084
1.14525e-06	0.012077261400552989
1.14550e-06	0.012134404621851846
1.14575e-06	0.012206765331835533
1.14600e-06	0.012282048233361093
1.14625e-06	0.01235733113488659
1.14650e-06	0.012432614036412153
1.14675e-06	0.01250789693793765
1.14700e-06	0.012583179839463146
1.14725e-06	0.012658462740988708
1.14750e-06	0.012733745642514206
1.14775e-06	0.012809028544039766
1.14800e-06	0.012884311445565264
1.14825e-06	0.012945228961726446
1.14850e-06	0.013003387914469311
1.14875e-06	0.013061546867212125
1.14900e-06	0.01311970581995499
1.14925e-06	0.013177864772697806
1.14950e-06	0.013236023725440669
1.14975e-06	0.013294182678183485
1.15000e-06	0.0133523416309263
1.15025e-06	0.013410500583669164
1.15050e-06	0.013468659536411978
1.15075e-06	0.013488491172395613
1.15100e-06	0.013500962871193279
1.15125e-06	0.013513434569990943
1.15150e-06	0.013525906268788619
1.15175e-06	0.013538377967586284
