Time(s)	Current(A)
8.00000e-06	-0.0014709423658449522
8.00025e-06	-0.0015427245622097942
8.00050e-06	-0.0016147695228985938
8.00075e-06	-0.0016862217433815032
8.00100e-06	-0.001757360410789398
8.00125e-06	-0.0018267089037956232
8.00150e-06	-0.0018951104141572053
8.00175e-06	-0.0019593938457585004
8.00200e-06	-0.00202149885881609
8.00225e-06	-0.0020836038718736794
8.00250e-06	-0.002138389108084094
8.00275e-06	-0.0021893022625420998
8.00300e-06	-0.002240215417000106
8.00325e-06	-0.0022861802630262506
8.00350e-06	-0.0023295275081085098
8.00375e-06	-0.002370668759669302
8.00400e-06	-0.0024106430648268913
8.00425e-06	-0.0024506173699847516
8.00450e-06	-0.002486568858654922
8.00475e-06	-0.0025203923214787193
8.00500e-06	-0.0025542157843027463
8.00525e-06	-0.002584791032490668
8.00550e-06	-0.00261364801072479
8.00575e-06	-0.0026425049889591073
8.00600e-06	-0.002671361967193425
8.00625e-06	-0.0026995250120955138
8.00650e-06	-0.002723876717375129
8.00675e-06	-0.0027482284226547442
8.00700e-06	-0.0027725801279341947
8.00725e-06	-0.0027969318332138095
8.00750e-06	-0.00281817780039461
8.00775e-06	-0.0028377808661487146
8.00800e-06	-0.0028573839319029526
8.00825e-06	-0.0028769869976571906
8.00850e-06	-0.0028965900634114286
8.00875e-06	-0.002916193129165534
8.00900e-06	-0.002935796194919772
8.00925e-06	-0.0029553992606740093
8.00950e-06	-0.0029750023264281146
8.00975e-06	-0.0029937385389313073
8.01000e-06	-0.0030077136713841214
8.01025e-06	-0.003021688803836841
8.01050e-06	-0.0030356639362896553
8.01075e-06	-0.0030496390687424694
8.01100e-06	-0.003063614201195189
8.01125e-06	-0.0030775893336480033
8.01150e-06	-0.0030915644661008174
8.01175e-06	-0.0031055395985535366
8.01200e-06	-0.0031195147310063513
8.01225e-06	-0.0031312613983191548
8.01250e-06	-0.003141829231988567
8.01275e-06	-0.0031511908755051917
8.01300e-06	-0.0031599144576463225
8.01325e-06	-0.0031656229450989616
8.01350e-06	-0.0031697364804957303
8.01375e-06	-0.003168365563730103
8.01400e-06	-0.003164093431859932
8.01425e-06	-0.0031598212999897324
8.01450e-06	-0.0031494140595385535
8.01475e-06	-0.003135761413866254
8.01500e-06	-0.003122108768193862
8.01525e-06	-0.0031015341452896765
8.01550e-06	-0.003077297872269335
8.01575e-06	-0.003053061599248829
8.01600e-06	-0.00302166757265268
8.01625e-06	-0.002986487172837677
8.01650e-06	-0.0029513067730224355
8.01675e-06	-0.00291117303961853
8.01700e-06	-0.0028684190470163007
8.01725e-06	-0.0028218442594231674
8.01750e-06	-0.002773248313141019
8.01775e-06	-0.0027210325020414795
8.01800e-06	-0.0026669018221140797
8.01825e-06	-0.0026105714174226645
8.01850e-06	-0.0025519016477810576
8.01875e-06	-0.0024916525586888504
8.01900e-06	-0.0024301007729446507
8.01925e-06	-0.002367394406376213
8.01950e-06	-0.002303652002833698
8.01975e-06	-0.002239120135216444
8.02000e-06	-0.0021741575468770995
8.02025e-06	-0.0021091496530844856
8.02050e-06	-0.002044481940830475
8.02075e-06	-0.001980539673106381
8.02100e-06	-0.0019176723949987597
8.02125e-06	-0.0018561493223222252
8.02150e-06	-0.0017962211369573573
8.02175e-06	-0.0017382187203225778
8.02200e-06	-0.0016825429035389635
8.02225e-06	-0.0016318649098508117
8.02250e-06	-0.0015833784715817238
8.02275e-06	-0.0015348920333123073
8.02300e-06	-0.0014931408546677528
8.02325e-06	-0.0014549525545725132
8.02350e-06	-0.0014167642544770146
8.02375e-06	-0.0013836520236423758
8.02400e-06	-0.001353224977832856
8.02425e-06	-0.00132279793202313
8.02450e-06	-0.0012971584403528805
8.02475e-06	-0.0012740515123695743
8.02500e-06	-0.001255731986248029
8.02525e-06	-0.0012399449432601857
8.02550e-06	-0.0012241579002723422
8.02575e-06	-0.0012127564749376556
8.02600e-06	-0.0012036749932921305
8.02625e-06	-0.0011945935116466054
8.02650e-06	-0.0011900045718454659
8.02675e-06	-0.0011877921374592473
8.02700e-06	-0.0011855797030730288
8.02725e-06	-0.0011871578873511323
8.02750e-06	-0.0011907412673723035
8.02775e-06	-0.0011943246473934744
8.02800e-06	-0.0012021554512755747
8.02825e-06	-0.0012122330958449442
8.02850e-06	-0.0012223107404143135
8.02875e-06	-0.0012323883849836147
8.02900e-06	-0.0012424660295529842
8.02925e-06	-0.0012525436741223537
8.02950e-06	-0.0012633617845908295
8.02975e-06	-0.001278246808830067
8.03000e-06	-0.0012931318330693046
8.03025e-06	-0.0013080168573084412
8.03050e-06	-0.0013229018815476786
8.03075e-06	-0.001337786905786916
8.03100e-06	-0.0013526719300260529
8.03125e-06	-0.001367616465487365
8.03150e-06	-0.0013825924817331473
8.03175e-06	-0.0013975684979788282
8.03200e-06	-0.001409848588120705
8.03225e-06	-0.0014207025628902373
8.03250e-06	-0.0014315565376596961
8.03275e-06	-0.0014424105124292287
8.03300e-06	-0.001453264487198761
8.03325e-06	-0.00146411846196822
8.03350e-06	-0.0014749724367377523
8.03375e-06	-0.0014845464709031064
8.03400e-06	-0.0014870905958242716
8.03425e-06	-0.0014896347207454196
8.03450e-06	-0.0014921788456665848
8.03475e-06	-0.0014947229705877501
8.03500e-06	-0.001497267095508898
8.03525e-06	-0.0014998112204300633
8.03550e-06	-0.0015023553453512284
8.03575e-06	-0.0014989523499701143
8.03600e-06	-0.0014924033931057042
8.03625e-06	-0.0014858544362412944
8.03650e-06	-0.0014793054793769288
8.03675e-06	-0.0014727565225125187
8.03700e-06	-0.0014662075656481088
8.03725e-06	-0.0014596586087837432
8.03750e-06	-0.0014531096519193331
8.03775e-06	-0.0014465606950549233
8.03800e-06	-0.0014358039975886948
8.03825e-06	-0.0014228214514437954
8.03850e-06	-0.0014098389052988962
8.03875e-06	-0.001396856359154085
8.03900e-06	-0.0013838738130091859
8.03925e-06	-0.0013708912668642865
8.03950e-06	-0.0013579087207194753
8.03975e-06	-0.0013449261745745761
8.04000e-06	-0.001331943628429677
8.04025e-06	-0.0013181453485863193
8.04050e-06	-0.0013039155545534475
8.04075e-06	-0.0012896857605205758
8.04100e-06	-0.0012754559664878006
8.04125e-06	-0.0012612261724549289
8.04150e-06	-0.0012481983048043578
8.04175e-06	-0.0012358062430419302
8.04200e-06	-0.0012234141812794185
8.04225e-06	-0.0012110221195169068
8.04250e-06	-0.001198630057754479
8.04275e-06	-0.0011879978671689546
8.04300e-06	-0.0011782966291551506
8.04325e-06	-0.0011715241698606312
8.04350e-06	-0.001166301002421353
8.04375e-06	-0.0011610778349820394
8.04400e-06	-0.0011602289912798788
8.04425e-06	-0.001161694116910175
8.04450e-06	-0.0011631592425404807
8.04475e-06	-0.0011688620989819811
8.04500e-06	-0.001176806668594488
8.04525e-06	-0.0011847512382070487
8.04550e-06	-0.0011975508208950277
8.04575e-06	-0.001212918652308868
8.04600e-06	-0.0012282864837228128
8.04625e-06	-0.0012480988134261808
8.04650e-06	-0.0012702622340311934
8.04675e-06	-0.0012924256546363562
8.04700e-06	-0.001318429615548745
8.04725e-06	-0.0013464651802070975
8.04750e-06	-0.0013745007448656402
8.04775e-06	-0.0014073880134920444
8.04800e-06	-0.0014428417803627612
8.04825e-06	-0.0014782955472337183
8.04850e-06	-0.0015137493141046754
8.04875e-06	-0.0015492030809753925
8.04900e-06	-0.0015846568478463496
8.04925e-06	-0.0016207469368230197
8.04950e-06	-0.001660331943174406
8.04975e-06	-0.0016999169495260603
8.05000e-06	-0.0017395019558777145
8.05025e-06	-0.0017790869622291007
8.05050e-06	-0.001818671968580755
8.05075e-06	-0.0018582569749324093
8.05100e-06	-0.0018965335660678742
8.05125e-06	-0.0019341180198890564
8.05150e-06	-0.0019717024737102387
8.05175e-06	-0.002006726025895618
8.05200e-06	-0.0020403948891720303
8.05225e-06	-0.0020740637524486708
8.05250e-06	-0.0021036754352815705
8.05275e-06	-0.0021311409141089406
8.05300e-06	-0.0021586063929364963
8.05325e-06	-0.0021782581066803505
8.05350e-06	-0.00219377642430024
8.05375e-06	-0.0022092947419202346
8.05400e-06	-0.002224813059540229
8.05425e-06	-0.0022403313771601186
8.05450e-06	-0.002255849694780113
8.05475e-06	-0.0022602529978092006
8.05500e-06	-0.002258776579892691
8.05525e-06	-0.002257300161976171
8.05550e-06	-0.0022558237440596512
8.05575e-06	-0.0022543473261431414
8.05600e-06	-0.0022528709082266216
8.05625e-06	-0.0022408661541085512
8.05650e-06	-0.0022232920254854783
8.05675e-06	-0.002205717896862286
8.05700e-06	-0.002188143768239094
8.05725e-06	-0.002170569639616021
8.05750e-06	-0.0021529955109928288
8.05775e-06	-0.002133583310080769
8.05800e-06	-0.00210407573337809
8.05825e-06	-0.002074568156675211
8.05850e-06	-0.002045060579972332
8.05875e-06	-0.002015553003269653
8.05900e-06	-0.0019860454265667737
8.05925e-06	-0.001956537849863895
8.05950e-06	-0.0019241292841116853
8.05975e-06	-0.0018901861269342668
8.06000e-06	-0.0018557641331283779
8.06025e-06	-0.0018210888399919898
8.06050e-06	-0.0017864506644987652
8.06075e-06	-0.0017518321238317678
8.06100e-06	-0.001717782225454434
8.06125e-06	-0.0016840331326187297
8.06150e-06	-0.0016514453080698505
8.06175e-06	-0.001619471781722422
8.06200e-06	-0.0015887469690220517
8.06225e-06	-0.0015597142400092389
8.06250e-06	-0.0015324079377357952
8.06275e-06	-0.0015078752608172201
8.06300e-06	-0.0014844793900049829
8.06325e-06	-0.0014654396838360696
8.06350e-06	-0.001448704341039291
8.06375e-06	-0.0014374552142832411
8.06400e-06	-0.0014291082357082217
8.06425e-06	-0.0014261783391848503
8.06450e-06	-0.0014261140197195407
8.06475e-06	-0.0014313730554988146
8.06500e-06	-0.0014394480878819908
8.06525e-06	-0.0014533416819705232
8.06550e-06	-0.0014703132314554594
8.06575e-06	-0.0014932937656710861
8.06600e-06	-0.0015194529869775293
8.06625e-06	-0.0015510601646006419
8.06650e-06	-0.001585549251429534
8.06675e-06	-0.0016260792378174618
8.06700e-06	-0.0016698047938905512
8.06725e-06	-0.0017135303499633443
8.06750e-06	-0.0017639809630655115
8.06775e-06	-0.001817989057659394
8.06800e-06	-0.0018719971522529106
8.06825e-06	-0.0019311013405981458
8.06850e-06	-0.0019929013067074416
8.06875e-06	-0.002054701272816737
8.06900e-06	-0.0021197833014661373
8.06925e-06	-0.002186601505243212
8.06950e-06	-0.002253419709020287
8.06975e-06	-0.002321845912537398
8.07000e-06	-0.002391122730301243
8.07025e-06	-0.0024603995480650884
8.07050e-06	-0.0025289412207720775
8.07075e-06	-0.0025970940097985763
8.07100e-06	-0.002665246798825075
8.07125e-06	-0.002731154788945787
8.07150e-06	-0.0027958753050388624
8.07175e-06	-0.002856672822554308
8.07200e-06	-0.002915395116800067
8.07225e-06	-0.002974117411046224
8.07250e-06	-0.0030258065654825543
8.07275e-06	-0.0030737752660103743
8.07300e-06	-0.003121743966538519
8.07325e-06	-0.003161751192800248
8.07350e-06	-0.00319754688639621
8.07375e-06	-0.0032333425799924136
8.07400e-06	-0.003261304458634356
8.07425e-06	-0.003285122334988055
8.07450e-06	-0.0033089402113419147
8.07475e-06	-0.0033203627999466878
8.07500e-06	-0.00332522841712753
8.07525e-06	-0.003330094034308405
8.07550e-06	-0.00333495965148928
8.07575e-06	-0.003339825268670122
8.07600e-06	-0.003344690885850997
8.07625e-06	-0.0033351983835658043
8.07650e-06	-0.0033181105933821585
8.07675e-06	-0.003301022803198397
8.07700e-06	-0.0032839350130146354
8.07725e-06	-0.003266847222830874
8.07750e-06	-0.003249759432647228
8.07775e-06	-0.003224950868180477
8.07800e-06	-0.0031960580987022156
8.07825e-06	-0.0031641784820155066
8.07850e-06	-0.0031307188558772963
8.07875e-06	-0.003094708733733704
8.07900e-06	-0.003057349427145188
8.07925e-06	-0.0030181254063147583
8.07950e-06	-0.002977914972079126
8.07975e-06	-0.0029366261085220307
8.08000e-06	-0.0028947667676680416
8.08025e-06	-0.0028524563808311407
8.08050e-06	-0.002809907395610937
8.08075e-06	-0.0027675332249712616
8.08100e-06	-0.0027252515293296844
8.08125e-06	-0.002683926517141325
8.08150e-06	-0.0026431075800185033
8.08175e-06	-0.0026040900858321204
8.08200e-06	-0.002566025535223982
8.08225e-06	-0.0025312976894019627
8.08250e-06	-0.0024983349238573097
8.08275e-06	-0.00246537215831288
8.08300e-06	-0.00243603991700899
8.08325e-06	-0.002408628183255011
8.08350e-06	-0.002382488601194458
8.08375e-06	-0.00235702197344267
8.08400e-06	-0.0023315553456908825
8.08425e-06	-0.0023083805113756676
8.08450e-06	-0.0022864180106809424
8.08475e-06	-0.002264455509986217
8.08500e-06	-0.0022424930092916407
8.08525e-06	-0.0022209577706998056
8.08550e-06	-0.0022017692142935726
8.08575e-06	-0.0021825806578873396
8.08600e-06	-0.0021633921014812367
8.08625e-06	-0.0021442035450750037
8.08650e-06	-0.002126545269352118
8.08675e-06	-0.0021096964953462626
8.08700e-06	-0.0020928477213402936
8.08725e-06	-0.002075998947334324
8.08750e-06	-0.002059150173328469
8.08775e-06	-0.0020423013993224994
8.08800e-06	-0.00202545262531653
8.08825e-06	-0.002008930577356831
8.08850e-06	-0.001994203030212935
8.08875e-06	-0.0019794754830690384
8.08900e-06	-0.001964747935925242
8.08925e-06	-0.0019500203887813455
8.08950e-06	-0.0019352928416374489
8.08975e-06	-0.0019205652944936523
8.09000e-06	-0.001905837747349756
8.09025e-06	-0.0018924473997750943
8.09050e-06	-0.001879764416123423
8.09075e-06	-0.0018670814324716657
8.09100e-06	-0.0018543984488199085
8.09125e-06	-0.0018417154651682373
8.09150e-06	-0.001830523917899041
8.09175e-06	-0.0018201213241373585
8.09200e-06	-0.0018097187303757463
8.09225e-06	-0.0017993161366140638
8.09250e-06	-0.0017889135428523814
8.09275e-06	-0.0017798976083950007
8.09300e-06	-0.001771615201518516
8.09325e-06	-0.0017633327946420315
8.09350e-06	-0.001754023562391479
8.09375e-06	-0.0017441711507669027
8.09400e-06	-0.0017343187391423264
8.09425e-06	-0.00172446632751775
8.09450e-06	-0.0017146139158932404
8.09475e-06	-0.001704761504268664
8.09500e-06	-0.0016949090926440876
8.09525e-06	-0.0016827368636875759
8.09550e-06	-0.0016693374767760558
8.09575e-06	-0.001655938089864536
8.09600e-06	-0.0016425387029531068
8.09625e-06	-0.001629139316041587
8.09650e-06	-0.0016157399291300669
8.09675e-06	-0.0016023405422186379
8.09700e-06	-0.0015863303465316874
8.09725e-06	-0.0015689390616039616
8.09750e-06	-0.0015515477766763536
8.09775e-06	-0.0015341564917486278
8.09800e-06	-0.001516765206820902
8.09825e-06	-0.001499373921893294
8.09850e-06	-0.0014819826369655681
8.09875e-06	-0.0014645913520378423
8.09900e-06	-0.0014472000671102345
8.09925e-06	-0.0014291011401365407
8.09950e-06	-0.0014106278782727198
8.09975e-06	-0.0013921546164090237
8.10000e-06	-0.0013736813545452027
8.10025e-06	-0.0013552080926813816
8.10050e-06	-0.0013367348308176857
8.10075e-06	-0.0013182615689538647
8.10100e-06	-0.0012997883070900436
8.10125e-06	-0.0012813150452263477
8.10150e-06	-0.0012643172339903465
8.10175e-06	-0.0012480999199730308
8.10200e-06	-0.001231882605955825
8.10225e-06	-0.0012172586476578802
8.10250e-06	-0.0012034775570804366
8.10275e-06	-0.0011896964665029932
8.10300e-06	-0.001176857072733416
8.10325e-06	-0.0011645158262588817
8.10350e-06	-0.0011503428336240651
8.10375e-06	-0.001135200867337121
8.10400e-06	-0.0011174861852189882
8.10425e-06	-0.0010984105646099631
8.10450e-06	-0.0010793349440010671
8.10475e-06	-0.0010578218934382676
8.10500e-06	-0.001035019469131597
8.10525e-06	-0.0010122170448250806
8.10550e-06	-0.0009853491155732193
8.10575e-06	-0.0009563305787422774
8.10600e-06	-0.0009273120419115322
8.10625e-06	-0.0008946130718872603
8.10650e-06	-0.0008599671930221871
8.10675e-06	-0.0008253213141573487
8.10700e-06	-0.000787750476202543
8.10725e-06	-0.0007486323669316128
8.10750e-06	-0.0007095142576609475
8.10775e-06	-0.0006672386361639276
8.10800e-06	-0.0006232927252891735
8.10825e-06	-0.0005793468144147171
8.10850e-06	-0.0005337936524979945
8.10875e-06	-0.00048739027238713464
8.10900e-06	-0.0004403230004051428
8.10925e-06	-0.00039290453689561295
8.10950e-06	-0.0003448651047375885
8.10975e-06	-0.0002964971869673964
8.11000e-06	-0.00024807847037148795
8.11025e-06	-0.00019963288175343667
8.11050e-06	-0.00015163207194719366
8.11075e-06	-0.00010442046421710896
8.11100e-06	-5.8201417390900326e-05
8.11125e-06	-1.3111410770523577e-05
8.11150e-06	3.074819337785346e-05
8.11175e-06	7.318028629373388e-05
8.11200e-06	0.00011389916252868544
8.11225e-06	0.00015259752688543662
8.11250e-06	0.00018896814045057624
8.11275e-06	0.0002227041924353378
8.11300e-06	0.00025375231651828683
8.11325e-06	0.00028267354626574444
8.11350e-06	0.0003102764127929763
8.11375e-06	0.000336921886832957
8.11400e-06	0.000362100477924922
8.11425e-06	0.000386670339050123
8.11450e-06	0.00040928234920272757
8.11475e-06	0.0004308586776386403
8.11500e-06	0.0004501763499170865
8.11525e-06	0.00046829921783088043
8.11550e-06	0.00048642208574479714
8.11575e-06	0.00050319015969271
8.11600e-06	0.0005192415624737599
8.11625e-06	0.0005352929652549186
8.11650e-06	0.0005495626831073161
8.11675e-06	0.0005628899091499733
8.11700e-06	0.0005762171351927208
8.11725e-06	0.0005881660340494022
8.11750e-06	0.0005993858129235942
8.11775e-06	0.0006106055917978624
8.11800e-06	0.0006200424167641617
8.11825e-06	0.0006285360786445973
8.11850e-06	0.0006370297405250905
8.11875e-06	0.0006455234024055836
8.11900e-06	0.0006540170642860192
8.11925e-06	0.0006625107261665124
8.11950e-06	0.0006710043880470056
8.11975e-06	0.0006794980499274987
8.12000e-06	0.0006875055829798556
8.12025e-06	0.0006928431159182588
8.12050e-06	0.000698180648856662
8.12075e-06	0.0007035181817950291
8.12100e-06	0.0007088557147334324
8.12125e-06	0.0007141932476718356
8.12150e-06	0.0007195307806102027
8.12175e-06	0.000724868313548606
8.12200e-06	0.0007302058464870092
8.12225e-06	0.0007347626481562582
8.12250e-06	0.0007387268021450482
8.12275e-06	0.000742393546763735
8.12300e-06	0.0007455454751662567
8.12325e-06	0.0007475464900897927
8.12350e-06	0.0007469071026588953
8.12375e-06	0.0007451326712197846
8.12400e-06	0.00074049896305719
8.12425e-06	0.0007343527288298248
8.12450e-06	0.0007256083547728786
8.12475e-06	0.0007154895932073423
8.12500e-06	0.0007027036910657509
8.12525e-06	0.0006885069007767134
8.12550e-06	0.0006709354505337978
8.12575e-06	0.0006515788421429897
8.12600e-06	0.0006290112340517235
8.12625e-06	0.0006047450422935081
8.12650e-06	0.0005777491810070222
8.12675e-06	0.0005493093544423515
8.12700e-06	0.0005184143671118523
8.12725e-06	0.0004862206266312729
8.12750e-06	0.00045144621064823447
8.12775e-06	0.0004153066455939072
8.12800e-06	0.00037700667192796963
8.12825e-06	0.0003375638657725488
8.12850e-06	0.0002965798208760878
8.12875e-06	0.00025478047756858523
8.12900e-06	0.00021192940584953342
8.12925e-06	0.00016852198132214147
8.12950e-06	0.00012430176845040607
8.12975e-06	7.965159944828104e-05
8.13000e-06	3.473923950676663e-05
8.13025e-06	-1.0251495641623749e-05
8.13050e-06	-5.497369194752911e-05
8.13075e-06	-9.915783704378422e-05
8.13100e-06	-0.0001425625893173545
8.13125e-06	-0.0001850110915031446
8.13150e-06	-0.0002263427641014615
8.13175e-06	-0.0002663354162565616
8.13200e-06	-0.000304712088457965
8.13225e-06	-0.0003411826726198419
8.13250e-06	-0.0003754571289339076
8.13275e-06	-0.00040724545676409343
8.13300e-06	-0.0004362836478935665
8.13325e-06	-0.00046239535018071705
8.13350e-06	-0.0004855029456404894
8.13375e-06	-0.0005055612956088864
8.13400e-06	-0.0005225151715233684
8.13425e-06	-0.0005363038605862632
8.13450e-06	-0.0005468666342761222
8.13475e-06	-0.0005541428760725275
8.13500e-06	-0.0005580882294934402
8.13525e-06	-0.0005587132272595938
8.13550e-06	-0.0005560902945114167
8.13575e-06	-0.0005503121651550692
8.13600e-06	-0.0005414652690304589
8.13625e-06	-0.0005296325901236864
8.13650e-06	-0.0005148970944899066
8.13675e-06	-0.00049734184225403
8.13700e-06	-0.00047706008041035455
8.13725e-06	-0.0004541794025670344
8.13750e-06	-0.00042886615030262595
8.13775e-06	-0.0004012994118992405
8.13800e-06	-0.0003716543173899924
8.13825e-06	-0.00034010382077032125
8.13850e-06	-0.00030682084803548365
8.13875e-06	-0.00027197836214584026
8.13900e-06	-0.00023539386442434596
8.13925e-06	-0.00019816232365153436
8.13950e-06	-0.0001597881328972891
8.13975e-06	-0.0001208094928198863
8.14000e-06	-8.129291340641163e-05
8.14025e-06	-4.1491769976471064e-05
8.14050e-06	-1.6619108996913042e-06
8.14075e-06	3.8002432220728615e-05
8.14100e-06	7.723660828148016e-05
8.14125e-06	0.00011579399388035733
8.14150e-06	0.00015341279333325514
8.14175e-06	0.0001898262516725111
8.14200e-06	0.00022476917496340465
8.14225e-06	0.00025797728476965767
8.14250e-06	0.0002891862947937167
8.14275e-06	0.0003181322412234516
8.14300e-06	0.00034419594481931235
8.14325e-06	0.0003691658526460564
8.14350e-06	0.000392878890463018
8.14375e-06	0.0004149138223004066
