Time(s)	Current(A)
6.30000e-06	0.0040253418845682485
6.30025e-06	0.003964753929461667
6.30050e-06	0.0039041659743550847
6.30075e-06	0.0038290025931331066
6.30100e-06	0.0037468182653668074
6.30125e-06	0.003664633937600508
6.30150e-06	0.0035824496098339305
6.30175e-06	0.003500265282067631
6.30200e-06	0.003418080954301332
6.30225e-06	0.0033358966265347543
6.30250e-06	0.003252156192000739
6.30275e-06	0.0031676661847028676
6.30300e-06	0.0030831761774052823
6.30325e-06	0.002998686170107697
6.30350e-06	0.0029141961628098255
6.30375e-06	0.002832219174821329
6.30400e-06	0.002762097358207893
6.30425e-06	0.0026919755415942197
6.30450e-06	0.0026218537249807837
6.30475e-06	0.0025517319083673477
6.30500e-06	0.0024816100917536745
6.30525e-06	0.0024244296038156013
6.30550e-06	0.0023734829217449092
6.30575e-06	0.002322536239674044
6.30600e-06	0.0022793229358257293
6.30625e-06	0.0022398347810518183
6.30650e-06	0.0022003466262777737
6.30675e-06	0.0021696288018718014
6.30700e-06	0.002143135623812054
6.30725e-06	0.002116642445752397
6.30750e-06	0.0020981851885020796
6.30775e-06	0.0020835988143384026
6.30800e-06	0.002069012440174775
6.30825e-06	0.0020612328028027874
6.30850e-06	0.0020567319536302993
6.30875e-06	0.0020522311044578264
6.30900e-06	0.002054563810256475
6.30925e-06	0.002060188222505026
6.30950e-06	0.0020658126347535576
6.30975e-06	0.0020794587356192215
6.31000e-06	0.002096968863959832
6.31025e-06	0.002114478992300383
6.31050e-06	0.0021319891206409334
6.31075e-06	0.0021494992489815437
6.31100e-06	0.0021670093773220947
6.31125e-06	0.0021845195056627046
6.31150e-06	0.002208358088319079
6.31175e-06	0.0022352450716945434
6.31200e-06	0.0022621320550700987
6.31225e-06	0.002289019038445563
6.31250e-06	0.002315906021821027
6.31275e-06	0.0023427930051965824
6.31300e-06	0.0023696799885720467
6.31325e-06	0.0023944338219910556
6.31350e-06	0.002418160122376569
6.31375e-06	0.0024418864227620024
6.31400e-06	0.002465612723147436
6.31425e-06	0.002489339023532949
6.31450e-06	0.0025130653239183827
6.31475e-06	0.0025367916243038157
6.31500e-06	0.0025605179246893294
6.31525e-06	0.002584244225074763
6.31550e-06	0.0026050140156959525
6.31575e-06	0.002611836468233277
6.31600e-06	0.0026186589207706015
6.31625e-06	0.002625481373307949
6.31650e-06	0.0026323038258452736
6.31675e-06	0.002639126278382598
6.31700e-06	0.0026459487309199456
6.31725e-06	0.00265277118345727
6.31750e-06	0.0026595936359945947
6.31775e-06	0.002666416088531942
6.31800e-06	0.002661014917980887
6.31825e-06	0.0026497256585620416
6.31850e-06	0.0026384363991431583
6.31875e-06	0.002627147139724313
6.31900e-06	0.002615857880305468
6.31925e-06	0.0026045686208865846
6.31950e-06	0.0025932793614677394
6.31975e-06	0.002581990102048856
6.32000e-06	0.002570700842630011
6.32025e-06	0.0025518215146344437
6.32050e-06	0.002529286069465753
6.32075e-06	0.0025067506242971386
6.32100e-06	0.002484215179128524
6.32125e-06	0.0024616797339598335
6.32150e-06	0.002439144288791219
6.32175e-06	0.0024166088436226047
6.32200e-06	0.002394073398453914
6.32225e-06	0.0023715379532852996
6.32250e-06	0.002347855604428405
6.32275e-06	0.00232362079491472
6.32300e-06	0.002299385985401117
6.32325e-06	0.002275151175887514
6.32350e-06	0.0022509163663738292
6.32375e-06	0.0022266815568602262
6.32400e-06	0.0022024467473465413
6.32425e-06	0.002183157467530173
6.32450e-06	0.002166250437079727
6.32475e-06	0.002149343406629223
6.32500e-06	0.0021324363761787766
6.32525e-06	0.0021155293457283306
6.32550e-06	0.002098622315277827
6.32575e-06	0.002081715284827381
6.32600e-06	0.0020731411356420303
6.32625e-06	0.00206858091465541
6.32650e-06	0.0020640206936688053
6.32675e-06	0.0020653300921924063
6.32700e-06	0.002069466871848433
6.32725e-06	0.002073603651504446
6.32750e-06	0.002084078478363716
6.32775e-06	0.0020976063268111243
6.32800e-06	0.002111134175258487
6.32825e-06	0.0021308923791573584
6.32850e-06	0.0021536517297949536
6.32875e-06	0.0021764110804325483
6.32900e-06	0.0022080332527311254
6.32925e-06	0.0022439246241998364
6.32950e-06	0.0022798159956685473
6.32975e-06	0.00231570736713738
6.33000e-06	0.002351598738606091
6.33025e-06	0.002387490110074802
6.33050e-06	0.002423381481543635
6.33075e-06	0.002461221476464693
6.33100e-06	0.0025082541046730815
6.33125e-06	0.002555286732881629
6.33150e-06	0.002602319361090017
6.33175e-06	0.0026493519892984052
6.33200e-06	0.0026963846175069527
6.33225e-06	0.002743417245715341
6.33250e-06	0.0027904498739238885
6.33275e-06	0.002835799598516573
6.33300e-06	0.0028803386726196003
6.33325e-06	0.002924877746722779
6.33350e-06	0.002969416820825806
6.33375e-06	0.0030139558949288337
6.33400e-06	0.003058494969032012
6.33425e-06	0.0031030340431350396
6.33450e-06	0.0031454468678953104
6.33475e-06	0.003177829109035237
6.33500e-06	0.0032102113501750536
6.33525e-06	0.00324259359131487
6.33550e-06	0.0032749758324547963
6.33575e-06	0.003307358073594613
6.33600e-06	0.00333974031473443
6.33625e-06	0.003372122555874356
6.33650e-06	0.003403518809885235
6.33675e-06	0.0034344401163464325
6.33700e-06	0.0034653614228075244
6.33725e-06	0.0034962827292686167
6.33750e-06	0.0035272040357298136
6.33775e-06	0.003558125342190906
6.33800e-06	0.0035890466486519982
6.33825e-06	0.003619967955113195
6.33850e-06	0.0036508892615742874
6.33875e-06	0.0036818105680353794
6.33900e-06	0.003712731874496576
6.33925e-06	0.0037436531809576686
6.33950e-06	0.003774574487418761
6.33975e-06	0.0038054957938799578
6.34000e-06	0.0038368076173874817
6.34025e-06	0.0038699617054920787
6.34050e-06	0.0039031157935967885
6.34075e-06	0.0039362698817013856
6.34100e-06	0.003969423969806095
6.34125e-06	0.004002578057910692
6.34150e-06	0.0040357321460152895
6.34175e-06	0.004068886234119999
6.34200e-06	0.004102040322224596
6.34225e-06	0.004135194410329193
6.34250e-06	0.004168348498433903
6.34275e-06	0.0042015025865385
6.34300e-06	0.004234656674643097
6.34325e-06	0.004267810762747807
6.34350e-06	0.004300964850852404
6.34375e-06	0.004323396306381213
6.34400e-06	0.00434066269644534
6.34425e-06	0.004357929086509409
6.34450e-06	0.004375195476573477
6.34475e-06	0.004392461866637604
6.34500e-06	0.004409728256701673
6.34525e-06	0.0044269946467658
6.34550e-06	0.004444261036829868
6.34575e-06	0.004461527426893937
6.34600e-06	0.004478793816958063
6.34625e-06	0.004496060207022132
6.34650e-06	0.0045133265970862
6.34675e-06	0.004530592987150327
6.34700e-06	0.004547859377214396
6.34725e-06	0.004565125767278464
6.34750e-06	0.0045780682530244775
6.34775e-06	0.004570612715388043
6.34800e-06	0.004563157177751608
6.34825e-06	0.004555701640115148
6.34850e-06	0.004548246102478714
6.34875e-06	0.004540790564842279
6.34900e-06	0.004533335027205819
6.34925e-06	0.004525879489569384
6.34950e-06	0.004518423951932924
6.34975e-06	0.004510968414296489
6.35000e-06	0.004503512876660055
6.35025e-06	0.004496057339023595
6.35050e-06	0.00448860180138716
6.35075e-06	0.004481146263750725
6.35100e-06	0.004473690726114266
6.35125e-06	0.00446623518847783
6.35150e-06	0.004452526368964118
6.35175e-06	0.004435805359110723
6.35200e-06	0.004419084349257385
6.35225e-06	0.0044023633394040486
6.35250e-06	0.004385642329550654
6.35275e-06	0.004368921319697316
6.35300e-06	0.004352200309843978
6.35325e-06	0.004335479299990584
6.35350e-06	0.0043187582901372465
6.35375e-06	0.004302037280283852
6.35400e-06	0.0042857968418618265
6.35425e-06	0.004271823499695764
6.35450e-06	0.004257850157529654
6.35475e-06	0.0042438768153635915
6.35500e-06	0.004229903473197528
6.35525e-06	0.004215930131031418
6.35550e-06	0.004201956788865356
6.35575e-06	0.004187983446699293
6.35600e-06	0.004174010104533183
6.35625e-06	0.00416003676236712
6.35650e-06	0.004146063420201057
6.35675e-06	0.004127960420302837
6.35700e-06	0.004107868174538379
6.35725e-06	0.004087775928773922
6.35750e-06	0.004067683683009396
6.35775e-06	0.00404759143724494
6.35800e-06	0.0040274991914804135
6.35825e-06	0.004007406945715957
6.35850e-06	0.003987314699951499
6.35875e-06	0.003967222454186974
6.35900e-06	0.003947130208422517
6.35925e-06	0.00392703796265806
6.35950e-06	0.003906945716893534
6.35975e-06	0.0038868534711290767
6.36000e-06	0.0038618088230471808
6.36025e-06	0.0038343786150770373
6.36050e-06	0.0038069484071069867
6.36075e-06	0.003779518199136936
6.36100e-06	0.003752087991166792
6.36125e-06	0.0037246577831967415
6.36150e-06	0.003697227575226691
6.36175e-06	0.0036697973672565475
6.36200e-06	0.003642367159286497
6.36225e-06	0.003614936951316353
6.36250e-06	0.0035875067433463023
6.36275e-06	0.0035600765353762517
6.36300e-06	0.0035326463274061083
6.36325e-06	0.0035110823288279423
6.36350e-06	0.003492344068734398
6.36375e-06	0.0034736058086407904
6.36400e-06	0.003454867548547246
6.36425e-06	0.003436129288453702
6.36450e-06	0.0034173910283600943
6.36475e-06	0.00339865276826655
6.36500e-06	0.0033799145081730058
6.36525e-06	0.003361176248079398
6.36550e-06	0.003342437987985854
6.36575e-06	0.0033236997278923096
6.36600e-06	0.003304961467798702
6.36625e-06	0.0032862232077051578
6.36650e-06	0.00326748494761155
6.36675e-06	0.003264378999834537
6.36700e-06	0.0032688030980484056
6.36725e-06	0.003273227196262289
6.36750e-06	0.0032776512944761573
6.36775e-06	0.003282075392690026
6.36800e-06	0.0032864994909039096
6.36825e-06	0.003290923589117778
6.36850e-06	0.003295347687331646
6.36875e-06	0.0032997717855455296
6.36900e-06	0.0033041958837593984
6.36925e-06	0.0033086199819732666
6.36950e-06	0.00331304408018715
6.36975e-06	0.003317468178401019
6.37000e-06	0.003321892276614887
6.37025e-06	0.0033361106084135493
6.37050e-06	0.0033550467981873816
6.37075e-06	0.003373982987961278
6.37100e-06	0.0033929191777351104
6.37125e-06	0.0034118553675089426
6.37150e-06	0.003430791557282839
6.37175e-06	0.0034497277470566714
6.37200e-06	0.0034686639368305037
6.37225e-06	0.0034876001266044
6.37250e-06	0.0035065754485078993
6.37275e-06	0.0035257353762760454
6.37300e-06	0.003544895304044256
6.37325e-06	0.003564055231812402
6.37350e-06	0.0035832151595805483
6.37375e-06	0.0036023750873487594
6.37400e-06	0.003621535015116905
6.37425e-06	0.003640694942885051
6.37450e-06	0.0036598548706532623
6.37475e-06	0.0036790147984214084
6.37500e-06	0.0036862014724349094
6.37525e-06	0.0036876206598736683
6.37550e-06	0.003689039847312427
6.37575e-06	0.0036904590347511907
6.37600e-06	0.00369187822218995
6.37625e-06	0.003693297409628709
6.37650e-06	0.0036947165970674725
6.37675e-06	0.0036961357845062314
6.37700e-06	0.0036975549719449902
6.37725e-06	0.0036989741593837543
6.37750e-06	0.003700393346822513
6.37775e-06	0.0036806550620286805
6.37800e-06	0.003650725275446694
6.37825e-06	0.0036207954888648097
6.37850e-06	0.003590865702282925
6.37875e-06	0.0035609359157009386
6.37900e-06	0.003531006129119054
6.37925e-06	0.003501076342537068
6.37950e-06	0.003471146555955183
6.37975e-06	0.0034412167693732986
6.38000e-06	0.0034112869827913122
6.38025e-06	0.0033813571962094274
6.38050e-06	0.0033393079162455826
6.38075e-06	0.0032914207064425544
6.38100e-06	0.0032435334966396884
6.38125e-06	0.0031956462868368224
6.38150e-06	0.0031477590770337942
6.38175e-06	0.0030998718672309283
6.38200e-06	0.0030519846574280623
6.38225e-06	0.0030031160998013813
6.38250e-06	0.002953774829367376
6.38275e-06	0.0029044335589333715
6.38300e-06	0.002855092288499199
6.38325e-06	0.0028057510180651943
6.38350e-06	0.0027564097476310222
6.38375e-06	0.002707068477197017
6.38400e-06	0.0026660654896423918
6.38425e-06	0.0026290790322254787
6.38450e-06	0.002592092574808691
6.38475e-06	0.002555106117391903
6.38500e-06	0.00251811965997499
6.38525e-06	0.0024811332025582024
6.38550e-06	0.0024441467451414146
6.38575e-06	0.0024071602877245015
6.38600e-06	0.002379434234101657
6.38625e-06	0.0023561688939690182
6.38650e-06	0.002332903553836301
6.38675e-06	0.002309638213703662
6.38700e-06	0.0022863728735710233
6.38725e-06	0.0022631075334383056
6.38750e-06	0.0022398421933056667
6.38775e-06	0.002216576853172949
6.38800e-06	0.0021965843588776165
6.38825e-06	0.0021819807618527237
6.38850e-06	0.002169213576661722
6.38875e-06	0.002156446391470763
6.38900e-06	0.0021436792062798048
6.38925e-06	0.002130912021088803
6.38950e-06	0.002118144835897844
6.38975e-06	0.0021053776507068854
6.39000e-06	0.0020926104655158836
6.39025e-06	0.0020798432803249252
6.39050e-06	0.0020670760951339664
6.39075e-06	0.0020543089099429646
6.39100e-06	0.002041541724752006
6.39125e-06	0.0020287745395610474
6.39150e-06	0.0020160073543700452
6.39175e-06	0.0020075712845847807
6.39200e-06	0.0020012215023248905
6.39225e-06	0.001994871720065022
6.39250e-06	0.0019885219378051535
6.39275e-06	0.001982172155545263
6.39300e-06	0.0019758223732853943
6.39325e-06	0.0019694725910255257
6.39350e-06	0.0019631228087656355
6.39375e-06	0.0019567730265057665
6.39400e-06	0.001950423244245898
6.39425e-06	0.0019440734619860075
6.39450e-06	0.001937723679726139
6.39475e-06	0.0019313738974662703
6.39500e-06	0.00192502411520638
6.39525e-06	0.001918249237928616
6.39550e-06	0.0019112695934373743
6.39575e-06	0.001904289948946109
6.39600e-06	0.001897310304454867
6.39625e-06	0.0018903306599636017
6.39650e-06	0.00188335101547236
6.39675e-06	0.0018763713709811184
6.39700e-06	0.001869391726489853
6.39725e-06	0.0018624120819986114
6.39750e-06	0.0018554324375073695
6.39775e-06	0.0018484527930161042
6.39800e-06	0.0018414731485248625
6.39825e-06	0.0018344935040336208
6.39850e-06	0.0018275138595423555
6.39875e-06	0.0018195096705446775
6.39900e-06	0.0018066721917178931
6.39925e-06	0.0017938347128910652
6.39950e-06	0.0017809972340642809
6.39975e-06	0.0017681597552374963
6.40000e-06	0.0017553222764106686
6.40025e-06	0.001742484797583884
6.40050e-06	0.0017296473187570563
6.40075e-06	0.0017168098399302717
6.40100e-06	0.0017039723611034874
6.40125e-06	0.0016911348822766595
6.40150e-06	0.001678297403449875
6.40175e-06	0.0016654599246230905
6.40200e-06	0.0016526224457962628
6.40225e-06	0.0016397849669694783
6.40250e-06	0.0016268524325411765
6.40275e-06	0.001613874110065863
6.40300e-06	0.0016008957875905936
6.40325e-06	0.0015879174651153242
6.40350e-06	0.0015749391426400107
6.40375e-06	0.0015619608201647413
6.40400e-06	0.0015489824976894718
6.40425e-06	0.0015360041752141584
6.40450e-06	0.0015240514571855425
6.40475e-06	0.0015169370292543484
6.40500e-06	0.0015098226013231786
6.40525e-06	0.0015027081733920086
6.40550e-06	0.0014955937454608145
6.40575e-06	0.0014884793175296447
6.40600e-06	0.0014813648895984747
6.40625e-06	0.0014742504616672807
6.40650e-06	0.0014671360337361109
6.40675e-06	0.0014672941202123378
6.40700e-06	0.001470955358800743
6.40725e-06	0.0014746165973891355
6.40750e-06	0.0014782778359775284
6.40775e-06	0.0014819390745659335
6.40800e-06	0.0014856003131543262
6.40825e-06	0.001489261551742719
6.40850e-06	0.0014929227903311242
6.40875e-06	0.0014965840289195168
6.40900e-06	0.001500245267507922
6.40925e-06	0.0015104496442831458
6.40950e-06	0.001523805834457964
6.40975e-06	0.0015371620246328271
6.41000e-06	0.0015505182148076453
6.41025e-06	0.0015638744049824632
6.41050e-06	0.0015772305951573266
6.41075e-06	0.0015905867853321445
6.41100e-06	0.0016039429755069627
6.41125e-06	0.0016172991656818259
6.41150e-06	0.001630655355856644
6.41175e-06	0.00164602923382455
6.41200e-06	0.0016623750269868073
6.41225e-06	0.0016787208201490093
6.41250e-06	0.0016950666133112111
6.41275e-06	0.0017114124064734684
6.41300e-06	0.0017277581996356702
6.41325e-06	0.0017441039927979275
6.41350e-06	0.0017604497859601293
6.41375e-06	0.0017762613293434205
6.41400e-06	0.0017895525488119653
6.41425e-06	0.001802843768280465
6.41450e-06	0.001816134987748965
6.41475e-06	0.0018294262072175097
6.41500e-06	0.0018427174266860095
6.41525e-06	0.0018560086461545092
6.41550e-06	0.0018692998656230542
6.41575e-06	0.001882591085091554
6.41600e-06	0.0019052709951694685
6.41625e-06	0.001932473414174895
6.41650e-06	0.0019596758331802294
6.41675e-06	0.0019868782521855637
6.41700e-06	0.0020140806711909905
6.41725e-06	0.002041283090196325
6.41750e-06	0.002068485509201751
6.41775e-06	0.0020956879282070856
6.41800e-06	0.00212289034721242
6.41825e-06	0.0021500927662178467
6.41850e-06	0.002177295185223181
6.41875e-06	0.0022201657327382816
6.41900e-06	0.0022705835788071923
6.41925e-06	0.0023210014248759322
6.41950e-06	0.002371419270944672
6.41975e-06	0.002421837117013583
6.42000e-06	0.0024722549630823228
6.42025e-06	0.0025226728091510627
6.42050e-06	0.0025730906552199734
6.42075e-06	0.0026235085012887133
6.42100e-06	0.002673926347357453
6.42125e-06	0.002724344193426364
6.42150e-06	0.0027802659245902053
6.42175e-06	0.0028388388635222435
6.42200e-06	0.0028974118024540836
6.42225e-06	0.002955984741385923
6.42250e-06	0.0030145576803179614
6.42275e-06	0.0030731306192498015
6.42300e-06	0.003131703558181641
6.42325e-06	0.0031847475148717485
6.42350e-06	0.003235128174560545
6.42375e-06	0.0032855088342493414
6.42400e-06	0.003335889493938308
6.42425e-06	0.0033862701536271043
6.42450e-06	0.003436650813315901
6.42475e-06	0.0034870314730048677
6.42500e-06	0.003523934089408874
6.42525e-06	0.003554344365868665
6.42550e-06	0.003584754642328559
6.42575e-06	0.0036151649187883502
6.42600e-06	0.0036455751952482445
6.42625e-06	0.003675985471708036
6.42650e-06	0.003706395748167827
6.42675e-06	0.0037368060246277214
6.42700e-06	0.0037672163010875124
6.42725e-06	0.0037976265775473035
6.42750e-06	0.0038255792969016334
6.42775e-06	0.0038419384879347382
6.42800e-06	0.003858297678967843
6.42825e-06	0.0038746568700010033
6.42850e-06	0.003891016061034108
6.42875e-06	0.003907375252067213
6.42900e-06	0.003923734443100373
6.42925e-06	0.003940093634133478
6.42950e-06	0.003956452825166583
6.42975e-06	0.003972812016199743
6.43000e-06	0.003989171207232849
6.43025e-06	0.004000521696188274
6.43050e-06	0.0040094595058046
6.43075e-06	0.004018397315420928
6.43100e-06	0.004027335125037285
6.43125e-06	0.004036272934653613
6.43150e-06	0.00404521074426994
6.43175e-06	0.0040541485538862975
6.43200e-06	0.004063086363502625
6.43225e-06	0.004072024173118952
6.43250e-06	0.00408096198273531
6.43275e-06	0.00408705952715281
6.43300e-06	0.004091788922885094
6.43325e-06	0.004096518318617393
6.43350e-06	0.004101247714349676
6.43375e-06	0.00410597711008196
6.43400e-06	0.00411070650581426
6.43425e-06	0.004115435901546544
6.43450e-06	0.004120165297278843
6.43475e-06	0.004124894693011126
6.43500e-06	0.00412962408874341
6.43525e-06	0.004122318679776066
6.43550e-06	0.0041092161353044445
6.43575e-06	0.004096113590832823
6.43600e-06	0.004083011046361157
6.43625e-06	0.004069908501889536
6.43650e-06	0.004056805957417914
6.43675e-06	0.0040437034129462476
6.43700e-06	0.004030600868474626
6.43725e-06	0.00399105353006344
6.43750e-06	0.00393876780015581
6.43775e-06	0.0038864820702483567
6.43800e-06	0.0038341963403409037
6.43825e-06	0.0037819106104332737
6.43850e-06	0.0037296248805258206
6.43875e-06	0.0036773391506181906
6.43900e-06	0.0036250534207107376
6.43925e-06	0.0035553514045961673
6.43950e-06	0.003477260006714395
6.43975e-06	0.003399168608832887
6.44000e-06	0.0033106037214233916
6.44025e-06	0.0032169937801464084
6.44050e-06	0.0031233838388697427
6.44075e-06	0.0030297738975930766
6.44100e-06	0.002936163956316094
6.44125e-06	0.0028409202452130133
6.44150e-06	0.0027379692231787036
6.44175e-06	0.002635018201144045
6.44200e-06	0.0025320671791097347
6.44225e-06	0.002429116157075425
6.44250e-06	0.002326165135040766
6.44275e-06	0.002225492478934678
6.44300e-06	0.0021259173060314937
6.44325e-06	0.002026342133128647
6.44350e-06	0.0019267669602258002
6.44375e-06	0.0018297133665822944
6.44400e-06	0.0017445553258352798
6.44425e-06	0.0016593972850882655
6.44450e-06	0.0015742392443409627
6.44475e-06	0.001489081203593948
6.44500e-06	0.001415693410397181
6.44525e-06	0.0013479753161821546
6.44550e-06	0.0012881379954259719
6.44575e-06	0.0012320968236517037
6.44600e-06	0.0011815286032808082
6.44625e-06	0.0011374064166676406
6.44650e-06	0.0010990850518316126
6.44675e-06	0.0010667955931864485
6.44700e-06	0.0010407666109418757
6.44725e-06	0.0010210624337844987
6.44750e-06	0.001007375482827947
6.44775e-06	0.0009992408325385988
6.44800e-06	0.0009963888587091287
6.44825e-06	0.000998735729475943
6.44850e-06	0.0010062401581222198
6.44875e-06	0.0010205675283790148
6.44900e-06	0.0010373759217903531
