Time(s)	Current(A)
1.05000e-05	-0.005244078013604714
1.05002e-05	-0.005224486634315021
1.05005e-05	-0.005198866857800395
1.05008e-05	-0.0051705832120910395
1.05010e-05	-0.005142299566381876
1.05013e-05	-0.0051140159206725195
1.05015e-05	-0.005085732274963164
1.05017e-05	-0.0050574486292540004
1.05020e-05	-0.005024852681797204
1.05023e-05	-0.004990351185094772
1.05025e-05	-0.004955849688392573
1.05028e-05	-0.00492134819169014
1.05030e-05	-0.004886846694987707
1.05033e-05	-0.0048506640355288665
1.05035e-05	-0.004813738492429475
1.05038e-05	-0.0047768129493298336
1.05040e-05	-0.004739887406230192
1.05043e-05	-0.0047029618631308
1.05045e-05	-0.004666129976324256
1.05048e-05	-0.004629339474997933
1.05050e-05	-0.004593457116762163
1.05053e-05	-0.00455797605497575
1.05055e-05	-0.004523385373879225
1.05058e-05	-0.004489880873878325
1.05060e-05	-0.004457522806738278
1.05063e-05	-0.004426536897777007
1.05065e-05	-0.004397153288843562
1.05068e-05	-0.00436960348866859
1.05070e-05	-0.004344126321289359
1.05073e-05	-0.004321048724436125
1.05075e-05	-0.004300791181719649
1.05078e-05	-0.004283662256323941
1.05080e-05	-0.004269768046511909
1.05083e-05	-0.0042602523202269005
1.05085e-05	-0.0042522315373836415
1.05087e-05	-0.004248732738733172
1.05090e-05	-0.004247232145234817
1.05093e-05	-0.004251618172710167
1.05095e-05	-0.004258605420326188
1.05098e-05	-0.0042655926679422565
1.05100e-05	-0.004281686924317676
1.05102e-05	-0.0043018054477066405
1.05105e-05	-0.004321923971095742
1.05108e-05	-0.004342042494484843
1.05110e-05	-0.004362161017873807
1.05113e-05	-0.004391827832638956
1.05115e-05	-0.004425713911384128
1.05118e-05	-0.004459599990129301
1.05120e-05	-0.0044934860688742445
1.05123e-05	-0.004527372147619417
1.05125e-05	-0.004566928587421819
1.05128e-05	-0.004608990684961038
1.05130e-05	-0.004651052782500543
1.05133e-05	-0.004695725845249971
1.05135e-05	-0.004741552659076619
1.05138e-05	-0.004787379472903577
1.05140e-05	-0.004834379896968778
1.05143e-05	-0.00488189892391349
1.05145e-05	-0.004929417950858525
1.05148e-05	-0.004976363629048394
1.05150e-05	-0.005023055951987712
1.05153e-05	-0.005069748274927346
1.05155e-05	-0.00511417077839598
1.05158e-05	-0.005157590278587692
1.05160e-05	-0.005201009778779699
1.05163e-05	-0.00524029063967544
1.05165e-05	-0.005277742690470344
1.05168e-05	-0.005315194741265502
1.05170e-05	-0.005346885099970335
1.05172e-05	-0.005376029442958867
1.05175e-05	-0.005405173785947596
1.05178e-05	-0.0054250240567265805
1.05180e-05	-0.005440767399619969
1.05183e-05	-0.005456510742513463
1.05185e-05	-0.005472254085406959
1.05187e-05	-0.005487997428300346
1.05190e-05	-0.0055037407711938414
1.05193e-05	-0.005519484114087336
1.05195e-05	-0.00552249098543495
1.05198e-05	-0.00551986977804869
1.05200e-05	-0.00551724857066243
1.05203e-05	-0.00551462736327617
1.05205e-05	-0.005512006155889927
1.05208e-05	-0.005509384948503666
1.05210e-05	-0.005506763741117407
1.05213e-05	-0.005494334732443744
1.05215e-05	-0.005477571785783042
1.05218e-05	-0.0054608088391223395
1.05220e-05	-0.005444045892461751
1.05223e-05	-0.005427282945801049
1.05225e-05	-0.005410519999140347
1.05228e-05	-0.0053922161033710635
1.05230e-05	-0.005367491065099379
1.05233e-05	-0.005342766026827695
1.05235e-05	-0.005318040988556179
1.05238e-05	-0.005293315950284495
1.05240e-05	-0.005268590912012811
1.05243e-05	-0.005243865873741295
1.05245e-05	-0.0052178282313429455
1.05248e-05	-0.005191210566499148
1.05250e-05	-0.005164592901655531
1.05253e-05	-0.0051385791584257325
1.05255e-05	-0.0051128322801892
1.05257e-05	-0.005087085401952843
1.05260e-05	-0.00506278648230259
1.05263e-05	-0.005039127396447702
1.05265e-05	-0.005017199014298516
1.05268e-05	-0.0049960354072823105
1.05270e-05	-0.0049771013044704725
1.05272e-05	-0.004959152390151318
1.05275e-05	-0.004944751003972357
1.05278e-05	-0.004931917223673727
1.05280e-05	-0.004919083443375183
1.05283e-05	-0.004910838390833649
1.05285e-05	-0.004904621036545931
1.05288e-05	-0.004898403682258213
1.05290e-05	-0.004899689753843781
1.05293e-05	-0.00490429149032516
1.05295e-05	-0.004908893226806537
1.05298e-05	-0.004913494963287884
1.05300e-05	-0.004918096699769262
1.05303e-05	-0.00492269843625064
1.05305e-05	-0.004929877276318922
1.05308e-05	-0.004947794919691788
1.05310e-05	-0.0049657125630646545
1.05313e-05	-0.0049836302064373995
1.05315e-05	-0.005001547849810266
1.05318e-05	-0.005019465493183132
1.05320e-05	-0.005037383136555878
1.05323e-05	-0.0050617678658547854
1.05325e-05	-0.005089010315100068
1.05328e-05	-0.005116252764345166
1.05330e-05	-0.005143495213590449
1.05333e-05	-0.0051707376628357315
1.05335e-05	-0.0051979801120808295
1.05338e-05	-0.005225222561326112
1.05340e-05	-0.005254211169872014
1.05342e-05	-0.005283971383174527
1.05345e-05	-0.005313731596477241
1.05348e-05	-0.0053434918097799555
1.05350e-05	-0.0053732520230824685
1.05353e-05	-0.005403012236385183
1.05355e-05	-0.005432772449687898
1.05357e-05	-0.005460324558249568
1.05360e-05	-0.005486900934459225
1.05363e-05	-0.0055134773106688805
1.05365e-05	-0.005537585574428679
1.05368e-05	-0.005560603211860301
1.05370e-05	-0.005580830053234799
1.05373e-05	-0.00559982367865215
1.05375e-05	-0.00561433213648959
1.05378e-05	-0.0056268586579488545
1.05380e-05	-0.005632780096252049
1.05383e-05	-0.005635782835453025
1.05385e-05	-0.005638785574654021
1.05388e-05	-0.005634043584323554
1.05390e-05	-0.005625879300193635
1.05393e-05	-0.0056177150160636605
1.05395e-05	-0.005601102396044143
1.05398e-05	-0.005580756567858803
1.05400e-05	-0.0055604107396733235
1.05403e-05	-0.005530127548189454
1.05405e-05	-0.005495453166973322
1.05408e-05	-0.005460778785756955
1.05410e-05	-0.005426104404540588
1.05413e-05	-0.005388629028734171
1.05415e-05	-0.005339481894708279
1.05418e-05	-0.005290334760682388
1.05420e-05	-0.005241187626656829
1.05423e-05	-0.005192040492630937
1.05425e-05	-0.005137229951798168
1.05427e-05	-0.0050799168262180075
1.05430e-05	-0.005020301532068063
1.05433e-05	-0.00495966894000094
1.05435e-05	-0.004897674940681064
1.05438e-05	-0.004834377900117507
1.05440e-05	-0.004770314241410828
1.05442e-05	-0.004705852437548509
1.05445e-05	-0.004641367488574509
1.05448e-05	-0.004577234897731017
1.05450e-05	-0.004513826901197234
1.05453e-05	-0.004451480255319852
1.05455e-05	-0.004390486374491771
1.05458e-05	-0.004331161366924209
1.05460e-05	-0.0042738846856317705
1.05463e-05	-0.004219066991099715
1.05465e-05	-0.0041671223613857795
1.05468e-05	-0.004118465595524355
1.05470e-05	-0.004073489133738885
1.05473e-05	-0.0040322994823111654
1.05475e-05	-0.003994542174047532
1.05478e-05	-0.00395983788048164
1.05480e-05	-0.003928138625945957
1.05483e-05	-0.003899581426368617
1.05485e-05	-0.0038743314487976657
1.05488e-05	-0.0038538254679067797
1.05490e-05	-0.003834961063496784
1.05493e-05	-0.00382093319924133
1.05495e-05	-0.003809042538269927
1.05498e-05	-0.00380217443822839
1.05500e-05	-0.003797525741597176
1.05503e-05	-0.003792877044965962
1.05505e-05	-0.0037959284780926645
1.05508e-05	-0.0038023824969686294
1.05510e-05	-0.003808836515844595
1.05512e-05	-0.0038152905347205164
1.05515e-05	-0.0038217445535964818
1.05518e-05	-0.0038357579917238185
1.05520e-05	-0.003853111837483951
1.05523e-05	-0.0038704656832442004
1.05525e-05	-0.0038878195290044503
1.05527e-05	-0.0039051733747645827
1.05530e-05	-0.0039268508794414875
1.05533e-05	-0.003950438951950061
1.05535e-05	-0.003974027024458475
1.05538e-05	-0.003999319533849781
1.05540e-05	-0.004025365211412335
1.05543e-05	-0.0040514108889748894
1.05545e-05	-0.004078069530827686
1.05548e-05	-0.00410499903351355
1.05550e-05	-0.004131928536199415
1.05553e-05	-0.004158550211103497
1.05555e-05	-0.004185035860972343
1.05558e-05	-0.004210458027485907
1.05560e-05	-0.0042354102547354795
1.05563e-05	-0.004258735769060683
1.05565e-05	-0.004281342460406255
1.05568e-05	-0.004301798609491521
1.05570e-05	-0.004321304462324912
1.05573e-05	-0.0043373259242785135
1.05575e-05	-0.004351807679872828
1.05578e-05	-0.004366289435467241
1.05580e-05	-0.004376006023461687
1.05583e-05	-0.004383616946761839
1.05585e-05	-0.004391227870062043
1.05588e-05	-0.004393900738398301
1.05590e-05	-0.004394391545395121
1.05593e-05	-0.004394882352391945
1.05595e-05	-0.004388708383803482
1.05597e-05	-0.004379589338814184
1.05600e-05	-0.004370470293824824
1.05603e-05	-0.004361351248835465
1.05605e-05	-0.004352232203846167
1.05608e-05	-0.004335757135238316
1.05610e-05	-0.004316031536843418
1.05612e-05	-0.004296305938448655
1.05615e-05	-0.004276580340053757
1.05618e-05	-0.00425685474165886
1.05620e-05	-0.004232393601195089
1.05623e-05	-0.0042058398871680815
1.05625e-05	-0.004179286173141074
1.05628e-05	-0.0041505750271956365
1.05630e-05	-0.0041209105405491855
1.05633e-05	-0.004089986699713745
1.05635e-05	-0.004058506366877236
1.05638e-05	-0.004026345088199927
1.05640e-05	-0.003993596126510759
1.05643e-05	-0.003960562838692322
1.05645e-05	-0.003927433104023438
1.05648e-05	-0.003894395030895914
1.05650e-05	-0.0038616358677339333
1.05653e-05	-0.0038293401553990587
1.05655e-05	-0.003797692656248987
1.05658e-05	-0.0037668887150110624
1.05660e-05	-0.0037371363356724723
1.05663e-05	-0.0037086479686697276
1.05665e-05	-0.003682245671545238
1.05668e-05	-0.0036565851734776753
1.05670e-05	-0.0036339748025122414
1.05673e-05	-0.0036127122424724828
1.05675e-05	-0.003591449682432868
1.05678e-05	-0.0035723801867631132
1.05680e-05	-0.003554279777305032
1.05682e-05	-0.003536179367847074
1.05685e-05	-0.0035218624111900275
1.05688e-05	-0.0035092173124101444
1.05690e-05	-0.0034965722136303477
1.05693e-05	-0.003483927114850465
1.05695e-05	-0.0034712820160705824
1.05697e-05	-0.003458636917290785
1.05700e-05	-0.0034459918185109025
1.05703e-05	-0.00343738609719547
1.05705e-05	-0.0034305653234896765
1.05708e-05	-0.0034237445497838363
1.05710e-05	-0.0034169237760779962
1.05713e-05	-0.003410103002372156
1.05715e-05	-0.0034032822286663624
1.05718e-05	-0.0033964614549605223
1.05720e-05	-0.003392426330251696
1.05723e-05	-0.003389622147083376
1.05725e-05	-0.0033868179639150366
1.05728e-05	-0.0033840137807466977
1.05730e-05	-0.0033812095975783774
1.05733e-05	-0.003378405414410038
1.05735e-05	-0.003375601231241699
1.05738e-05	-0.003372797048073379
1.05740e-05	-0.0033716115645645657
1.05743e-05	-0.0033711413630797063
1.05745e-05	-0.00337067116159485
1.05748e-05	-0.0033702009601099905
1.05750e-05	-0.0033697307586251315
1.05753e-05	-0.003369260557140275
1.05755e-05	-0.0033687903556554157
1.05758e-05	-0.0033683201541705563
1.05760e-05	-0.00336811768050269
1.05763e-05	-0.003368033512225009
1.05765e-05	-0.0033679176138411517
1.05767e-05	-0.003367762019599592
1.05770e-05	-0.0033675813545368713
1.05773e-05	-0.00336756966474282
1.05775e-05	-0.0033681815975349252
1.05778e-05	-0.003370183906935485
1.05780e-05	-0.003372693937689404
1.05782e-05	-0.003376644014686942
1.05785e-05	-0.0033812304291209734
1.05788e-05	-0.0033870774895545606
1.05790e-05	-0.0033934816128235387
1.05793e-05	-0.0034017319223126922
1.05795e-05	-0.0034107980371357156
1.05798e-05	-0.0034198641519587393
1.05800e-05	-0.003432433814629872
1.05803e-05	-0.0034465516488727797
1.05805e-05	-0.003460669483115687
1.05808e-05	-0.003474787317358499
1.05810e-05	-0.0034889051516014064
1.05813e-05	-0.003504032599050485
1.05815e-05	-0.0035233671096964367
1.05818e-05	-0.00354270162034252
1.05820e-05	-0.0035620361309886034
1.05823e-05	-0.0035813706416345553
1.05825e-05	-0.0036007051522806387
1.05828e-05	-0.0036222762574105137
1.05830e-05	-0.0036448356841352714
1.05833e-05	-0.003667395110860182
1.05835e-05	-0.003689954537585093
1.05838e-05	-0.003712513964309851
1.05840e-05	-0.0037350733910347616
1.05843e-05	-0.003757600468660757
1.05845e-05	-0.00378011325164657
1.05848e-05	-0.0038026260346325355
1.05850e-05	-0.0038251388176185007
1.05853e-05	-0.003847651600604314
1.05855e-05	-0.003870164383590279
1.05858e-05	-0.003890855121073167
1.05860e-05	-0.003910740720686222
1.05863e-05	-0.0039306263202994116
1.05865e-05	-0.003945047740496998
1.05867e-05	-0.0039570546118991865
1.05870e-05	-0.003969061483301457
1.05873e-05	-0.003981068354703727
1.05875e-05	-0.003993075226105916
1.05878e-05	-0.004005082097508186
1.05880e-05	-0.0040170889689104565
1.05883e-05	-0.004029095840312726
1.05885e-05	-0.004041102711714915
1.05888e-05	-0.004053109583117186
1.05890e-05	-0.004065116454519456
1.05893e-05	-0.004077123325921644
1.05895e-05	-0.004087446305708805
1.05898e-05	-0.00409075250084869
1.05900e-05	-0.004094058695988553
1.05903e-05	-0.004097364891128438
1.05905e-05	-0.0041006710862683225
1.05908e-05	-0.004103977281408185
1.05910e-05	-0.00410728347654807
1.05913e-05	-0.004110589671687955
1.05915e-05	-0.004113895866827817
1.05918e-05	-0.004117202061967702
1.05920e-05	-0.004120508257107587
1.05923e-05	-0.0041238144522474495
1.05925e-05	-0.0041271206473873345
1.05928e-05	-0.004127644353533519
1.05930e-05	-0.004126938514502251
1.05933e-05	-0.004126232675470978
1.05935e-05	-0.004125526836439705
1.05938e-05	-0.004124820997408437
1.05940e-05	-0.004124115158377164
1.05943e-05	-0.004123409319345891
1.05945e-05	-0.004122703480314622
1.05948e-05	-0.00412199764128335
1.05950e-05	-0.004120655477714093
1.05952e-05	-0.004119032130726404
1.05955e-05	-0.004117408783738705
1.05958e-05	-0.004115785436751006
1.05960e-05	-0.0041141620897633185
1.05963e-05	-0.0041125387427756194
1.05965e-05	-0.00411091539578792
1.05968e-05	-0.004109292048800221
1.05970e-05	-0.0041076687018125335
1.05973e-05	-0.004107234107957069
1.05975e-05	-0.004107324808427808
1.05978e-05	-0.004107415508898547
1.05980e-05	-0.004107506209369286
1.05983e-05	-0.004107596909840025
1.05985e-05	-0.004107687610310763
1.05988e-05	-0.004107778310781502
1.05990e-05	-0.004107869011252241
1.05993e-05	-0.0041079597117229805
1.05995e-05	-0.004110417261017928
1.05998e-05	-0.004113920689583064
1.06000e-05	-0.004117424118148177
1.06003e-05	-0.004120927546713313
1.06005e-05	-0.00412443097527845
1.06008e-05	-0.0041279344038435625
1.06010e-05	-0.004131437832408699
1.06013e-05	-0.004134941260973836
1.06015e-05	-0.004138444689538949
1.06018e-05	-0.004143831857966576
1.06020e-05	-0.004150051426187769
1.06023e-05	-0.004156270994408919
1.06025e-05	-0.004162490562630112
1.06028e-05	-0.004168710130851305
1.06030e-05	-0.004174929699072455
1.06033e-05	-0.004181149267293648
1.06035e-05	-0.00418736883551484
1.06037e-05	-0.004193588403735991
1.06040e-05	-0.004199840624613689
1.06043e-05	-0.0042062289092718195
1.06045e-05	-0.004212617193929907
1.06048e-05	-0.004219005478588039
1.06050e-05	-0.004225393763246169
1.06053e-05	-0.0042317820479043
1.06055e-05	-0.004238170332562388
1.06058e-05	-0.0042445586172205185
1.06060e-05	-0.004250946901878649
1.06063e-05	-0.004257335186536737
1.06065e-05	-0.004261452761522685
1.06068e-05	-0.004264566939861162
1.06070e-05	-0.004267681118199617
1.06073e-05	-0.0042707952965380935
1.06075e-05	-0.004273909474876571
1.06078e-05	-0.004277023653215026
1.06080e-05	-0.004280137831553502
1.06083e-05	-0.004283252009891979
1.06085e-05	-0.004285247794287987
1.06088e-05	-0.0042825832256183265
1.06090e-05	-0.004279918656948667
1.06093e-05	-0.004277254088279025
1.06095e-05	-0.004274589519609365
1.06098e-05	-0.004271924950939705
1.06100e-05	-0.004269260382270063
1.06103e-05	-0.004266595813600403
1.06105e-05	-0.004263931244930743
1.06108e-05	-0.004257614159197254
1.06110e-05	-0.00424968307435949
1.06113e-05	-0.004241751989521725
1.06115e-05	-0.0042338209046840145
1.06118e-05	-0.00422588981984625
1.06120e-05	-0.0042179587350084854
1.06122e-05	-0.004210027650170775
1.06125e-05	-0.00420209656533301
1.06128e-05	-0.00419219825428207
1.06130e-05	-0.004181430651920404
1.06133e-05	-0.004170663049558665
1.06135e-05	-0.0041598954471969265
1.06138e-05	-0.004149127844835188
1.06140e-05	-0.004138360242473522
1.06143e-05	-0.004127592640111783
1.06145e-05	-0.004116825037750045
1.06148e-05	-0.0041059764549902025
1.06150e-05	-0.004095092088060671
1.06153e-05	-0.00408420772113114
1.06155e-05	-0.004073323354201683
1.06158e-05	-0.004063260094599612
1.06160e-05	-0.004053559671493061
1.06163e-05	-0.0040438592483865755
1.06165e-05	-0.004034158825280024
1.06168e-05	-0.004025535126590277
1.06170e-05	-0.004017387218215665
1.06173e-05	-0.004010664177305559
1.06175e-05	-0.004004570766530473
1.06178e-05	-0.0040009237227192065
1.06180e-05	-0.0039983576961954885
1.06183e-05	-0.00399889056263562
1.06185e-05	-0.0040007927889942636
1.06188e-05	-0.00400269501535292
1.06190e-05	-0.004008236596076601
1.06193e-05	-0.004015386359481892
1.06195e-05	-0.004022536122887232
1.06198e-05	-0.004035781780632508
1.06200e-05	-0.0040517211336663
1.06203e-05	-0.0040676604867002
1.06205e-05	-0.0040835998397341
1.06207e-05	-0.004099539192767893
1.06210e-05	-0.004115478545801793
1.06213e-05	-0.004138060875107745
1.06215e-05	-0.004163578647990749
1.06218e-05	-0.004189096420873926
1.06220e-05	-0.004214614193757103
1.06222e-05	-0.004240131966640106
1.06225e-05	-0.004265649739523283
1.06228e-05	-0.004295244492569075
1.06230e-05	-0.004326640809363323
1.06233e-05	-0.00435803712615736
1.06235e-05	-0.004389433442951608
1.06238e-05	-0.004420829759745858
1.06240e-05	-0.0044522260765398934
1.06243e-05	-0.004483609498942686
1.06245e-05	-0.004514939190352751
1.06248e-05	-0.004546268881762603
1.06250e-05	-0.004577598573172668
1.06253e-05	-0.0046089282645827324
1.06255e-05	-0.004640257955992585
1.06258e-05	-0.004671587647402649
1.06260e-05	-0.004699154535765231
1.06263e-05	-0.004725058691101376
1.06265e-05	-0.004750962846437696
1.06268e-05	-0.0047768670017740164
1.06270e-05	-0.004798804409410939
1.06273e-05	-0.00481898896357058
1.06275e-05	-0.004839173517730221
1.06278e-05	-0.004859358071889726
1.06280e-05	-0.004877798749273334
1.06283e-05	-0.004895468830515469
1.06285e-05	-0.004913138911757484
1.06288e-05	-0.004930808992999618
1.06290e-05	-0.004948479074241754
1.06292e-05	-0.004966149155483769
1.06295e-05	-0.004983819236725903
1.06298e-05	-0.005001489317968038
1.06300e-05	-0.005019159399210053
1.06303e-05	-0.005036698224741845
1.06305e-05	-0.005053690107081748
1.06307e-05	-0.005070681989421537
1.06310e-05	-0.005087673871761442
1.06313e-05	-0.005104665754101346
1.06315e-05	-0.00512165763644125
1.06318e-05	-0.005138649518781039
1.06320e-05	-0.005155641401120944
1.06323e-05	-0.005172633283460848
1.06325e-05	-0.005189625165800637
1.06328e-05	-0.005206304231922576
1.06330e-05	-0.005222845068684556
1.06333e-05	-0.005239385905446424
1.06335e-05	-0.0052559267422084026
1.06338e-05	-0.005272467578970382
1.06340e-05	-0.005289008415732249
1.06343e-05	-0.005305549252494229
1.06345e-05	-0.005322090089256209
1.06348e-05	-0.005338003464214288
1.06350e-05	-0.005351302202742988
1.06353e-05	-0.005364600941271688
1.06355e-05	-0.005377899679800299
1.06358e-05	-0.005391198418328999
1.06360e-05	-0.005404497156857699
1.06363e-05	-0.00541779589538631
1.06365e-05	-0.00543109463391501
1.06368e-05	-0.005444393372443711
1.06370e-05	-0.005452166308269716
1.06373e-05	-0.005457497464778989
1.06375e-05	-0.0054628286212882625
1.06377e-05	-0.0054681597777975
1.06380e-05	-0.005473490934306774
1.06383e-05	-0.005478822090816047
1.06385e-05	-0.005484153247325285
1.06388e-05	-0.005481356883047874
1.06390e-05	-0.005474969074554656
1.06392e-05	-0.005468581266061482
1.06395e-05	-0.005462193457568264
1.06398e-05	-0.0054558056490750465
1.06400e-05	-0.005449417840581828
1.06403e-05	-0.0054430300320886535
1.06405e-05	-0.005428859847009663
1.06408e-05	-0.005411250732384039
1.06410e-05	-0.005393641617758535
1.06413e-05	-0.00537603250313291
1.06415e-05	-0.0053584233885072855
1.06418e-05	-0.005340814273881781
1.06420e-05	-0.005323205159256157
1.06423e-05	-0.0053003953983399256
1.06425e-05	-0.0052752875404358315
1.06428e-05	-0.0052501796825315675
1.06430e-05	-0.005225071824627304
1.06433e-05	-0.00519996396672321
1.06435e-05	-0.005174856108818946
1.06438e-05	-0.005149748250914682
1.06440e-05	-0.005123099493242527
1.06443e-05	-0.005095769832290436
1.06445e-05	-0.005068440171338345
1.06448e-05	-0.005041465973696106
1.06450e-05	-0.005014648850600911
1.06453e-05	-0.004987831727505716
1.06455e-05	-0.0049622628167291585
1.06458e-05	-0.004937245474509408
1.06460e-05	-0.004912228132289658
