Time(s)	Current(A)
1.30000e-05	-0.004803121003174183
1.30003e-05	-0.004814219064285894
1.30005e-05	-0.004825317125397531
1.30008e-05	-0.004836415186509242
1.30010e-05	-0.004847513247620954
1.30013e-05	-0.0048586113087325895
1.30015e-05	-0.004869709369844301
1.30018e-05	-0.004880807430956012
1.30020e-05	-0.004891993459260294
1.30023e-05	-0.004903259146904776
1.30025e-05	-0.004914524834549257
1.30028e-05	-0.004925790522193663
1.30030e-05	-0.004937056209838145
1.30033e-05	-0.004948321897482626
1.30035e-05	-0.004959587585127032
1.30038e-05	-0.004970853272771513
1.30040e-05	-0.004982118960415995
1.30043e-05	-0.0049933846480604
1.30045e-05	-0.005004650335704882
1.30048e-05	-0.005015916023349363
1.30050e-05	-0.005027396322201254
1.30053e-05	-0.005047322378467086
1.30055e-05	-0.005067248434732916
1.30058e-05	-0.005087174490998748
1.30060e-05	-0.005107100547264444
1.30063e-05	-0.005127026603530274
1.30065e-05	-0.0051469526597961055
1.30068e-05	-0.005166878716061802
1.30070e-05	-0.005186804772327632
1.30073e-05	-0.0052067308285934635
1.30075e-05	-0.0052266568848591596
1.30078e-05	-0.00524658294112499
1.30080e-05	-0.0052665089973908214
1.30083e-05	-0.005291468140626216
1.30085e-05	-0.005320985032890935
1.30088e-05	-0.005350501925155654
1.30090e-05	-0.005380018817420173
1.30093e-05	-0.005409535709684891
1.30095e-05	-0.00543905260194961
1.30098e-05	-0.005468569494214128
1.30100e-05	-0.0054980863864788464
1.30103e-05	-0.005527603278743565
1.30105e-05	-0.005557120171008084
1.30108e-05	-0.005586637063272802
1.30110e-05	-0.0056160758252457345
1.30113e-05	-0.005642439866656914
1.30115e-05	-0.0056688039080682725
1.30118e-05	-0.0056951679494796304
1.30120e-05	-0.0057215319908908106
1.30123e-05	-0.0057478960323021685
1.30125e-05	-0.005774260073713527
1.30128e-05	-0.0058006241151247065
1.30130e-05	-0.005826988156536065
1.30133e-05	-0.005853352197947423
1.30135e-05	-0.005879716239358603
1.30138e-05	-0.005906080280769962
1.30140e-05	-0.0059317655044832645
1.30143e-05	-0.005956836019823054
1.30145e-05	-0.005981906535162673
1.30148e-05	-0.006006977050502463
1.30150e-05	-0.006032047565842251
1.30153e-05	-0.0060571180811818705
1.30155e-05	-0.00608218859652166
1.30158e-05	-0.006107259111861449
1.30160e-05	-0.006132329627201069
1.30163e-05	-0.006157400142540858
1.30165e-05	-0.0061824706578806465
1.30168e-05	-0.00620778303264578
1.30170e-05	-0.006242613484629252
1.30173e-05	-0.006277443936612725
1.30175e-05	-0.0063122743885959615
1.30178e-05	-0.006347104840579434
1.30180e-05	-0.006381935292562906
1.30183e-05	-0.006416765744546143
1.30185e-05	-0.006451596196529616
1.30188e-05	-0.006486426648513088
1.30190e-05	-0.006521257100496325
1.30193e-05	-0.0065560875524797975
1.30195e-05	-0.0065909180044632695
1.30198e-05	-0.006627118482276931
1.30200e-05	-0.006664559597087311
1.30203e-05	-0.0067020007118976915
1.30205e-05	-0.006739441826707817
1.30208e-05	-0.006776882941518197
1.30210e-05	-0.006814324056328577
1.30213e-05	-0.006851765171138704
1.30215e-05	-0.006889206285949084
1.30218e-05	-0.006926647400759464
1.30220e-05	-0.006964088515569591
1.30223e-05	-0.007001529630379971
1.30225e-05	-0.007032871000375865
1.30228e-05	-0.007058688701460912
1.30230e-05	-0.007084506402545784
1.30233e-05	-0.007110324103630832
1.30235e-05	-0.007136141804715879
1.30238e-05	-0.007161959505800751
1.30240e-05	-0.007187777206885799
1.30243e-05	-0.0072135949079708455
1.30245e-05	-0.007239412609055718
1.30248e-05	-0.007265230310140766
1.30250e-05	-0.0072910480112258124
1.30253e-05	-0.007308589383771772
1.30255e-05	-0.0073186360659592605
1.30258e-05	-0.00732868274814675
1.30260e-05	-0.007338729430334171
1.30263e-05	-0.00734877611252166
1.30265e-05	-0.007358822794709149
1.30268e-05	-0.00736886947689657
1.30270e-05	-0.007378916159084059
1.30273e-05	-0.007388962841271549
1.30275e-05	-0.0073990095234589695
1.30278e-05	-0.007409056205646459
1.30280e-05	-0.007419102887833947
1.30283e-05	-0.007429149570021368
1.30285e-05	-0.0074391962522088574
1.30288e-05	-0.007449242934396347
1.30290e-05	-0.007459289616583768
1.30293e-05	-0.007469336298771257
1.30295e-05	-0.007479191033287219
1.30298e-05	-0.007481491905621617
1.30300e-05	-0.00748379277795603
1.30303e-05	-0.007486093650290442
1.30305e-05	-0.00748839452262484
1.30308e-05	-0.007490695394959253
1.30310e-05	-0.007492996267293666
1.30313e-05	-0.00749529713962808
1.30315e-05	-0.007497598011962476
1.30318e-05	-0.00749989888429689
1.30320e-05	-0.007502199756631303
1.30323e-05	-0.007504500628965701
1.30325e-05	-0.007506801501300113
1.30328e-05	-0.007509102373634526
1.30330e-05	-0.007511403245968924
1.30333e-05	-0.007513704118303337
1.30335e-05	-0.00751600499063775
1.30338e-05	-0.007518305862972147
1.30340e-05	-0.0075171013064271215
1.30343e-05	-0.007512722382901706
1.30345e-05	-0.007508343459376321
1.30348e-05	-0.0075039645358509054
1.30350e-05	-0.00749958561232549
1.30353e-05	-0.0074952066888001045
1.30355e-05	-0.007490827765274689
1.30358e-05	-0.007486448841749273
1.30360e-05	-0.007482069918223888
1.30363e-05	-0.007477690994698472
1.30365e-05	-0.007473312071173057
1.30368e-05	-0.0074689331476476715
1.30370e-05	-0.007458419230770398
1.30373e-05	-0.007442349725406686
1.30375e-05	-0.007426280220043083
1.30378e-05	-0.007410210714679371
1.30380e-05	-0.007394141209315659
1.30383e-05	-0.007378071703952056
1.30385e-05	-0.007362002198588344
1.30388e-05	-0.0073459326932246325
1.30390e-05	-0.0073298631878610295
1.30393e-05	-0.007313793682497318
1.30395e-05	-0.007297724177133606
1.30398e-05	-0.007281654671769894
1.30400e-05	-0.007263476431464345
1.30403e-05	-0.00724338861067612
1.30405e-05	-0.007223300789887896
1.30408e-05	-0.007203212969099807
1.30410e-05	-0.007183125148311583
1.30413e-05	-0.007163037327523358
1.30415e-05	-0.007142949506735269
1.30418e-05	-0.007122966622879389
1.30420e-05	-0.007107113401661598
1.30423e-05	-0.007091260180443914
1.30425e-05	-0.007075406959226123
1.30428e-05	-0.007059553738008332
1.30430e-05	-0.007043700516790648
1.30433e-05	-0.007027847295572856
1.30435e-05	-0.007011994074355065
1.30438e-05	-0.006997110230559881
1.30440e-05	-0.006983104213640635
1.30443e-05	-0.006969098196721389
1.30445e-05	-0.006955092179802238
1.30448e-05	-0.006941086162882992
1.30450e-05	-0.006927080145963746
1.30453e-05	-0.0069128982904847576
1.30455e-05	-0.006891796526869516
1.30458e-05	-0.006870694763254275
1.30460e-05	-0.006849592999639176
1.30463e-05	-0.006828491236023935
1.30465e-05	-0.006807389472408693
1.30468e-05	-0.006786287708793595
1.30470e-05	-0.006762286907239056
1.30473e-05	-0.006732351089354295
1.30475e-05	-0.006699418083799408
1.30478e-05	-0.006666485078244299
1.30480e-05	-0.006633552072689189
1.30482e-05	-0.006600619067134303
1.30485e-05	-0.006567686061579194
1.30488e-05	-0.006534753056024084
1.30490e-05	-0.006501820050468975
1.30493e-05	-0.006468887044914088
1.30495e-05	-0.0064359540393589786
1.30498e-05	-0.006403021033803869
1.30500e-05	-0.006368893436019004
1.30503e-05	-0.0063336840664273125
1.30505e-05	-0.006298474696835621
1.30508e-05	-0.006263265327244169
1.30510e-05	-0.006228055957652478
1.30513e-05	-0.006192846588060786
1.30515e-05	-0.006157637218469333
1.30518e-05	-0.006122427848877642
1.30520e-05	-0.006087218479285951
1.30523e-05	-0.006052009109694499
1.30525e-05	-0.006016799740102807
1.30528e-05	-0.005990557757041479
1.30530e-05	-0.0059724362570077166
1.30533e-05	-0.005954314756973831
1.30535e-05	-0.005936193256939946
1.30538e-05	-0.005918071756906183
1.30540e-05	-0.005899950256872298
1.30543e-05	-0.005881828756838413
1.30545e-05	-0.005863707256804651
1.30548e-05	-0.005845585756770765
1.30550e-05	-0.00582746425673688
1.30553e-05	-0.005809342756703117
1.30555e-05	-0.005791221256669232
1.30558e-05	-0.005773099756635347
1.30560e-05	-0.005754978256601585
1.30563e-05	-0.005736856756567699
1.30565e-05	-0.005718735256533814
1.30567e-05	-0.005706831372406119
1.30570e-05	-0.005700557896232018
1.30573e-05	-0.005694284420057916
1.30575e-05	-0.005688010943883815
1.30578e-05	-0.005681737467709756
1.30580e-05	-0.005675463991535655
1.30583e-05	-0.005669190515361554
1.30585e-05	-0.005662917039187495
1.30588e-05	-0.005656643563013394
1.30590e-05	-0.005650370086839293
1.30593e-05	-0.005644096610665234
1.30595e-05	-0.005637823134491133
1.30598e-05	-0.0056315496583170315
1.30600e-05	-0.005625276182142973
1.30603e-05	-0.005619002705968872
1.30605e-05	-0.00561272922979477
1.30608e-05	-0.005608431174713694
1.30610e-05	-0.005605921976777083
1.30613e-05	-0.005603412778840472
1.30615e-05	-0.005600903580903878
1.30618e-05	-0.005598394382967267
1.30620e-05	-0.005595885185030657
1.30623e-05	-0.005593429901308456
1.30625e-05	-0.005593096344546348
1.30628e-05	-0.005592762787784238
1.30630e-05	-0.005592429231022132
1.30633e-05	-0.005592095674260023
1.30635e-05	-0.005591762117497914
1.30638e-05	-0.005591428560735808
1.30640e-05	-0.005599957722223475
1.30643e-05	-0.005616512583607768
1.30645e-05	-0.005633067444991948
1.30648e-05	-0.005649622306376241
1.30650e-05	-0.005666177167760534
1.30652e-05	-0.005682732029144715
1.30655e-05	-0.005699286890529008
1.30658e-05	-0.0057158417519133
1.30660e-05	-0.00573310952221992
1.30663e-05	-0.005778432937933801
1.30665e-05	-0.005823756353647989
1.30668e-05	-0.0058690797693621765
1.30670e-05	-0.005914403185076057
1.30673e-05	-0.005959726600790246
1.30675e-05	-0.006005050016504434
1.30678e-05	-0.0060503734322183145
1.30680e-05	-0.006095696847932502
1.30683e-05	-0.00615269219460264
1.30685e-05	-0.006220257144461116
1.30688e-05	-0.006287822094320049
1.30690e-05	-0.006355387044178983
1.30693e-05	-0.006422951994037459
1.30695e-05	-0.0064905169438963925
1.30698e-05	-0.006558081893755326
1.30700e-05	-0.006625646843613803
1.30703e-05	-0.006695736808842323
1.30705e-05	-0.006768113320367686
1.30708e-05	-0.006840489831892558
1.30710e-05	-0.006912866343417921
1.30713e-05	-0.006985242854943284
1.30715e-05	-0.0070576193664681555
1.30718e-05	-0.007129995877993518
1.30720e-05	-0.007202372389518881
1.30723e-05	-0.007265692887150277
1.30725e-05	-0.0073208126445873205
1.30728e-05	-0.007375932402024364
1.30730e-05	-0.007431052159461034
1.30733e-05	-0.007486171916898078
1.30735e-05	-0.007541291674335122
1.30737e-05	-0.007596411431771792
1.30740e-05	-0.007651531189208836
1.30743e-05	-0.0077066509466458795
1.30745e-05	-0.007752653499232535
1.30748e-05	-0.007790399899701158
1.30750e-05	-0.007828146300170037
1.30753e-05	-0.007865892700638918
1.30755e-05	-0.007903639101107541
1.30758e-05	-0.00794138550157642
1.30760e-05	-0.0079791319020453
1.30763e-05	-0.008016878302513922
1.30765e-05	-0.008054624702982802
1.30768e-05	-0.008088341319908281
1.30770e-05	-0.008118408736614333
1.30773e-05	-0.008148476153320587
1.30775e-05	-0.008178543570026843
1.30778e-05	-0.008208610986732895
1.30780e-05	-0.008238678403439151
1.30783e-05	-0.008268745820145406
1.30785e-05	-0.008298813236851457
1.30788e-05	-0.008328880653557713
1.30790e-05	-0.00835894807026397
1.30793e-05	-0.008389015486970021
1.30795e-05	-0.008419082903676276
1.30798e-05	-0.008449150320382532
1.30800e-05	-0.008479217737088584
1.30803e-05	-0.008505216461097967
1.30805e-05	-0.00852753075041663
1.30808e-05	-0.008549845039735143
1.30810e-05	-0.008572159329053806
1.30813e-05	-0.008594473618372471
1.30815e-05	-0.008616787907690982
1.30818e-05	-0.008639102197009647
1.30820e-05	-0.00866141648632831
1.30822e-05	-0.008683730775646823
1.30825e-05	-0.008706045064965487
1.30828e-05	-0.00872835935428415
1.30830e-05	-0.008750673643602814
1.30833e-05	-0.008772987932921326
1.30835e-05	-0.00879530222223999
1.30838e-05	-0.008810443061563112
1.30840e-05	-0.008819087930315848
1.30843e-05	-0.008827732799068642
1.30845e-05	-0.008836377667821436
1.30848e-05	-0.008845022536574173
1.30850e-05	-0.008853667405326967
1.30853e-05	-0.008862312274079761
1.30855e-05	-0.008870957142832498
1.30858e-05	-0.008879602011585292
1.30860e-05	-0.008888246880338086
1.30863e-05	-0.008896891749090823
1.30865e-05	-0.008905536617843617
1.30868e-05	-0.008914181486596411
1.30870e-05	-0.008922826355349148
1.30873e-05	-0.008925056717882813
1.30875e-05	-0.008921478376982015
1.30878e-05	-0.008917900036081242
1.30880e-05	-0.008914321695180444
1.30883e-05	-0.008910743354279646
1.30885e-05	-0.008907165013378873
1.30888e-05	-0.008903586672478075
1.30890e-05	-0.008900008331577279
1.30893e-05	-0.008896429990676505
1.30895e-05	-0.008892851649775707
1.30898e-05	-0.00888927330887491
1.30900e-05	-0.008885694967974136
1.30903e-05	-0.008882116627073338
1.30905e-05	-0.00887853828617254
1.30907e-05	-0.00887351751880225
1.30910e-05	-0.00886719055149976
1.30913e-05	-0.008860863584197269
1.30915e-05	-0.008854536616894778
1.30918e-05	-0.008848209649592329
1.30920e-05	-0.00884188268228984
1.30923e-05	-0.008835555714987349
1.30925e-05	-0.0088292287476849
1.30928e-05	-0.008822942165838281
1.30930e-05	-0.008818244903474005
1.30933e-05	-0.008813547641109762
1.30935e-05	-0.008808850378745486
1.30938e-05	-0.008804153116381212
1.30940e-05	-0.008799455854016968
1.30943e-05	-0.008794758591652694
1.30945e-05	-0.008790061329288418
1.30948e-05	-0.008785364066924173
1.30950e-05	-0.00877758687615566
1.30953e-05	-0.008767020633495576
1.30955e-05	-0.008756454390835562
1.30958e-05	-0.008745888148175477
1.30960e-05	-0.00873532190551539
1.30963e-05	-0.008724755662855377
1.30965e-05	-0.008714189420195292
1.30968e-05	-0.008703623177535206
1.30970e-05	-0.008693056934875192
1.30973e-05	-0.008682490692215107
1.30975e-05	-0.008671924449555023
1.30978e-05	-0.008661358206895009
1.30980e-05	-0.008646900247871785
1.30983e-05	-0.008628918116380679
1.30985e-05	-0.008610935984889696
1.30988e-05	-0.008592953853398592
1.30990e-05	-0.008574971721907488
1.30992e-05	-0.008556989590416503
1.30995e-05	-0.008539007458925399
1.30998e-05	-0.008521025327434295
1.31000e-05	-0.008503043195943189
1.31003e-05	-0.008485061064452206
1.31005e-05	-0.008467078932961102
1.31008e-05	-0.008449096801469998
1.31010e-05	-0.008431163462546519
1.31013e-05	-0.008413274308092447
1.31015e-05	-0.008395385153638375
1.31018e-05	-0.008377495999184423
1.31020e-05	-0.008359606844730352
1.31023e-05	-0.008341717690276279
1.31025e-05	-0.008326348317597217
1.31028e-05	-0.008313260751897004
1.31030e-05	-0.008300173186196792
1.31033e-05	-0.008287085620496668
1.31035e-05	-0.008273998054796453
1.31038e-05	-0.00826091048909624
1.31040e-05	-0.008246191834294833
1.31043e-05	-0.00822999613472227
1.31045e-05	-0.008213800435149706
1.31048e-05	-0.008197604735577253
1.31050e-05	-0.00818140903600469
1.31053e-05	-0.008165213336432126
1.31055e-05	-0.008149017636859674
1.31058e-05	-0.008132821937287111
1.31060e-05	-0.008116626237714548
1.31063e-05	-0.008100430538142094
1.31065e-05	-0.008083933108710889
1.31068e-05	-0.008055561475192579
1.31070e-05	-0.008027189841674462
1.31073e-05	-0.007998818208156152
1.31075e-05	-0.007970446574637842
1.31077e-05	-0.007942074941119724
1.31080e-05	-0.007913703307601414
1.31083e-05	-0.007885331674083104
1.31085e-05	-0.007856960040564794
1.31088e-05	-0.007828588407046677
1.31090e-05	-0.007800216773528368
1.31093e-05	-0.007768680831512277
1.31095e-05	-0.007734279426587142
1.31098e-05	-0.007699878021661773
1.31100e-05	-0.007665476616736406
1.31103e-05	-0.007631075211811271
1.31105e-05	-0.007596673806885903
1.31108e-05	-0.007562272401960534
1.31110e-05	-0.007527870997035399
1.31113e-05	-0.007493469592110031
1.31115e-05	-0.007459068187184664
1.31118e-05	-0.007424666782259529
1.31120e-05	-0.007395848123826091
1.31123e-05	-0.00737208496267349
1.31125e-05	-0.007348321801521049
1.31128e-05	-0.007324558640368448
1.31130e-05	-0.007300795479215846
1.31133e-05	-0.0072770323180634065
1.31135e-05	-0.007253269156910805
1.31138e-05	-0.007229505995758204
1.31140e-05	-0.007205742834605764
1.31143e-05	-0.007181979673453163
1.31145e-05	-0.007158216512300562
1.31148e-05	-0.007144061142586652
1.31150e-05	-0.007138606179306553
1.31153e-05	-0.007133151216026454
1.31155e-05	-0.007127696252746392
1.31158e-05	-0.007122241289466293
1.31160e-05	-0.0071167863261861935
1.31162e-05	-0.007111331362906131
1.31165e-05	-0.007105876399626032
1.31168e-05	-0.007100421436345933
1.31170e-05	-0.007094966473065834
1.31173e-05	-0.0070895115097857715
1.31175e-05	-0.007084056546505672
1.31178e-05	-0.007078601583225573
1.31180e-05	-0.007073146619945511
1.31183e-05	-0.007067691656665412
1.31185e-05	-0.007062236693385313
1.31188e-05	-0.007056781730105251
1.31190e-05	-0.007051326766825152
1.31193e-05	-0.007051017274388814
1.31195e-05	-0.007055367301044317
1.31198e-05	-0.007059717327699848
1.31200e-05	-0.0070640673543553795
1.31203e-05	-0.007068417381010882
1.31205e-05	-0.007072767407666413
1.31208e-05	-0.007077117434321945
1.31210e-05	-0.007081467460977447
1.31213e-05	-0.007085817487632979
1.31215e-05	-0.00709016751428851
1.31218e-05	-0.0070945175409440125
1.31220e-05	-0.007098867567599544
1.31223e-05	-0.007103217594255075
1.31225e-05	-0.007107567620910578
1.31228e-05	-0.007111917647566109
1.31230e-05	-0.007116267674221641
1.31233e-05	-0.007120617700877143
1.31235e-05	-0.007124967727532674
1.31238e-05	-0.007127472571022967
1.31240e-05	-0.007128306495281871
1.31243e-05	-0.0071291404195407805
1.31245e-05	-0.00712997434379969
1.31247e-05	-0.007130808268058594
1.31250e-05	-0.007131642192317504
1.31253e-05	-0.007132476116576413
1.31255e-05	-0.007133310040835323
1.31258e-05	-0.007134143965094227
1.31260e-05	-0.007134977889353137
1.31263e-05	-0.007135811813612046
1.31265e-05	-0.007136645737870951
1.31268e-05	-0.00713747966212986
1.31270e-05	-0.0071383135863887694
1.31273e-05	-0.007139147510647674
1.31275e-05	-0.0071398174902021615
1.31278e-05	-0.0071340356293602995
1.31280e-05	-0.007128253768518477
1.31283e-05	-0.007122471907676616
1.31285e-05	-0.007116690046834755
1.31288e-05	-0.007110908185992933
1.31290e-05	-0.007105126325151072
1.31293e-05	-0.0070993444643092105
1.31295e-05	-0.007093562603467388
1.31298e-05	-0.007087780742625527
1.31300e-05	-0.007081998881783666
1.31303e-05	-0.007076217020941844
1.31305e-05	-0.007070435160099983
1.31308e-05	-0.007064653299258121
1.31310e-05	-0.0070588714384162985
1.31313e-05	-0.007053089577574437
1.31315e-05	-0.007047462313346563
1.31318e-05	-0.007041975045223359
1.31320e-05	-0.007036487777100117
1.31323e-05	-0.0070310005089768745
1.31325e-05	-0.00702551324085367
1.31328e-05	-0.007020025972730428
1.31330e-05	-0.007014538704607186
1.31332e-05	-0.00701044169091261
1.31335e-05	-0.007006310372423877
1.31338e-05	-0.11345683655223106
1.31340e-05	-0.04696532083941948
1.31343e-05	-0.01745621349339105
1.31345e-05	-0.0036226517181283937
1.31348e-05	0.007874668550645857
1.31350e-05	0.012188691366841678
1.31353e-05	0.004814849902794772
1.31355e-05	-0.005191361695698908
1.31358e-05	-0.020196326826450693
1.31360e-05	-0.03576505679116753
1.31363e-05	-0.019680061632572576
1.31365e-05	-0.005745033945235236
1.31368e-05	0.0036650411874821704
1.31370e-05	0.00805839013193112
1.31373e-05	0.003308432643991533
1.31375e-05	-0.0045156701197342055
1.31378e-05	-0.01273181714189921
1.31380e-05	-0.016990638175532962
1.31383e-05	-0.012512993083621419
1.31385e-05	-0.005755482308051827
1.31388e-05	-3.389789168937833e-05
1.31390e-05	0.00268392382871673
1.31393e-05	-0.0003240883000344237
1.31395e-05	-0.005255921056044534
1.31398e-05	-0.010431456913488249
1.31400e-05	-0.013126395340165983
1.31403e-05	-0.010347490697028946
1.31405e-05	-0.006139494062889391
1.31408e-05	-0.0025794744445547906
1.31410e-05	-0.000899988647057316
1.31413e-05	-0.002805906927976149
1.31415e-05	-0.0059154491270315725
1.31418e-05	-0.009176141204346455
1.31420e-05	-0.010881558305201142
1.31423e-05	-0.009156966824997639
1.31425e-05	-0.006536194706044357
1.31428e-05	-0.004320337872150589
1.31430e-05	-0.003281393455675261
1.31433e-05	-0.004487128519131908
1.31435e-05	-0.006445454043113995
1.31438e-05	-0.008497014090522902
1.31440e-05	-0.009572848529651654
1.31443e-05	-0.008498710462012088
1.31445e-05	-0.00686193827808842
1.31448e-05	-0.005477624135534178
1.31450e-05	-0.004829379340897258
1.31453e-05	-0.005586031266463966
1.31455e-05	-0.0068129264255210615
1.31458e-05	-0.008097096471291877
1.31460e-05	-0.008769044552164554
1.31463e-05	-0.008093384671364843
1.31465e-05	-0.0070645738797282575
