Time(s)	Current(A)
4.25000e-06	-0.0005960544485042633
4.25025e-06	-0.0005985772726893394
4.25050e-06	-0.000601100096874407
4.25075e-06	-0.0006036077499917609
4.25100e-06	-0.0006049622771858184
4.25125e-06	-0.0006063168043798713
4.25150e-06	-0.0006076713315739243
4.25175e-06	-0.0006090258587679818
4.25200e-06	-0.0006103725414655621
4.25225e-06	-0.0006111229779131254
4.25250e-06	-0.0006118734143606863
4.25275e-06	-0.000612623850808247
4.25300e-06	-0.0006133742872558104
4.25325e-06	-0.0006140793168262252
4.25350e-06	-0.0006113330502804974
4.25375e-06	-0.0006085354867202703
4.25400e-06	-0.0006018389281628195
4.25425e-06	-0.0005950963621195408
4.25450e-06	-0.0005848568487614048
4.25475e-06	-0.0005745731230918812
4.25500e-06	-0.0005609288981277989
4.25525e-06	-0.0005472262355122155
4.25550e-06	-0.0005290818307637608
4.25575e-06	-0.0005108780098993103
4.25600e-06	-0.00048815807554935376
4.25625e-06	-0.0004653878787723064
4.25650e-06	-0.00043879732414648905
4.25675e-06	-0.00041216347199239575
4.25700e-06	-0.00038223865158230804
4.25725e-06	-0.00035227913782025173
4.25750e-06	-0.000319659294998567
4.25775e-06	-0.0002852441212497986
4.25800e-06	-0.0002492442502355064
4.25825e-06	-0.00021188429038955788
4.25850e-06	-0.00017338882104161915
4.25875e-06	-0.0001339820484054031
4.25900e-06	-9.386045421231743e-05
4.25925e-06	-5.310197724421542e-05
4.25950e-06	-1.1719161752272012e-05
4.25975e-06	3.0149839432801717e-05
4.26000e-06	7.217207442585717e-05
4.26025e-06	0.00011419430941905502
4.26050e-06	0.00015620274556771277
4.26075e-06	0.00019716235605518598
4.26100e-06	0.00023809859034809526
4.26125e-06	0.0002772580416101893
4.26150e-06	0.00031638518407902473
4.26175e-06	0.00035305659253111833
4.26200e-06	0.00038968221402025716
4.26225e-06	0.0004228276497568841
4.26250e-06	0.0004559299580340981
4.26275e-06	0.00048572125359167885
4.26300e-06	0.0005129569080399611
4.26325e-06	0.0005364252182862052
4.26350e-06	0.0005598300432282796
4.26375e-06	0.000578409462930634
4.26400e-06	0.0005969222510493544
4.26425e-06	0.000610370490819141
4.26450e-06	0.0006237480789484687
4.26475e-06	0.0006317555613411821
4.26500e-06	0.0006396930032085671
4.26525e-06	0.0006423067891180559
4.26550e-06	0.0006448567851105703
4.26575e-06	0.0006425582227887506
4.26600e-06	0.000640198539879835
4.26625e-06	0.0006331931896812383
4.26650e-06	0.0006261288447599498
4.26675e-06	0.0006145804157308874
4.26700e-06	0.0006029780165778915
4.26725e-06	0.0005872734441442325
4.26750e-06	0.0005715234571990284
4.26775e-06	0.0005523215938747588
4.26800e-06	0.0005330806297617551
4.26825e-06	0.0005108676841384318
4.26850e-06	0.0004886148380234739
4.26875e-06	0.00046332922639576483
4.26900e-06	0.0004380436147681414
4.26925e-06	0.00041272752044876676
4.26950e-06	0.0003850944908692714
4.26975e-06	0.000357461461289776
4.27000e-06	0.0003298182391507047
4.27025e-06	0.00030140029866634486
4.27050e-06	0.000272982358181985
4.27075e-06	0.00024457399517356486
4.27100e-06	0.00021689359911000112
4.27125e-06	0.0001892132030464374
4.27150e-06	0.0001615512264802382
4.27175e-06	0.00013530283828286236
4.27200e-06	0.00011010076673367389
4.27225e-06	8.613476805131128e-05
4.27250e-06	6.359454090836705e-05
4.27275e-06	4.267051680913639e-05
4.27300e-06	2.361248065306786e-05
4.27325e-06	6.907503897801505e-06
4.27350e-06	-6.871599461610303e-06
4.27375e-06	-1.7478234978097822e-05
4.27400e-06	-2.4918735051846624e-05
4.27425e-06	-2.9219067309804265e-05
4.27450e-06	-3.0405214314695796e-05
4.27475e-06	-2.850270421491288e-05
4.27500e-06	-2.349989795388247e-05
4.27525e-06	-1.5236528978314383e-05
4.27550e-06	-3.4986556764463086e-06
4.27575e-06	1.17233113813775e-05
4.27600e-06	3.0280525121473934e-05
4.27625e-06	5.201184654947026e-05
4.27650e-06	7.675613771342121e-05
4.27675e-06	0.00010435254832571152
4.27700e-06	0.00013466351578881434
4.27725e-06	0.00016764459680332195
4.27750e-06	0.00020327985396358564
4.27775e-06	0.0002409081629554005
4.27800e-06	0.0002652830693860086
4.27825e-06	0.0003131470725358692
4.27850e-06	-0.022011812023309194
4.27875e-06	-0.024242775623897404
4.27900e-06	-0.017476019763152766
4.27925e-06	-0.012474400219189047
4.27950e-06	0.005493155242474317
4.27975e-06	0.010239182305578716
4.28000e-06	0.007708650367934342
4.28025e-06	0.003370582479019535
4.28050e-06	-0.004714945842472359
4.28075e-06	-0.008924223977286053
4.28100e-06	-0.007448755837256863
4.28125e-06	-0.003097244288072557
4.28150e-06	0.0032355426954773204
4.28175e-06	0.006790431528252841
4.28200e-06	0.0065703563100091966
4.28225e-06	0.0036955370184642584
4.28250e-06	-0.0014854786524423696
4.28275e-06	-0.004209108839390592
4.28300e-06	-0.0033513788292579057
4.28325e-06	-0.0006776925732272228
4.28350e-06	0.0032475800620848107
4.28375e-06	0.005440463041664582
4.28400e-06	0.005274268065888781
4.28425e-06	0.0034491912487389304
4.28450e-06	0.00018248666592936904
4.28475e-06	-0.001542821890537692
4.28500e-06	-0.0010234730964608122
4.28525e-06	0.0006340933718781126
4.28550e-06	0.0030759627539424677
4.28575e-06	0.004432780392806283
4.28600e-06	0.004311968347549341
4.28625e-06	0.003152154104249312
4.28650e-06	0.0010894636498819342
4.28675e-06	-7.567123398298446e-06
4.28700e-06	0.0003014710330228773
4.28725e-06	0.0013234192800246826
4.28750e-06	0.002836551506012986
4.28775e-06	0.0036699432822458957
4.28800e-06	0.0035777911659804554
4.28825e-06	0.0028349616389481687
4.28850e-06	0.0015268196812946117
4.28875e-06	0.0008238548606553215
4.28900e-06	0.0010019156121618504
4.28925e-06	0.0016267932273899977
4.28950e-06	0.0025596107451047513
4.28975e-06	0.0030669553998200583
4.29000e-06	0.0029949499372409713
4.29025e-06	0.0025158629568881093
4.29050e-06	0.001683250327156361
4.29075e-06	0.0012303521818959624
4.29100e-06	0.0013299657513089352
4.29125e-06	0.001710113716118966
4.29150e-06	0.0022838311241319105
4.29175e-06	0.0025917614125055286
4.29200e-06	0.002537593365726335
4.29225e-06	0.0022293132740711175
4.29250e-06	0.001700538822084246
4.29275e-06	0.0014106200159631909
4.29300e-06	0.0014678769891745766
4.29325e-06	0.0017022614381151657
4.29350e-06	0.002059727764309253
4.29375e-06	0.0022526848563070748
4.29400e-06	0.002220733146480359
4.29425e-06	0.0020314244688014885
4.29450e-06	0.0017057230756917098
4.29475e-06	0.0015312569639213823
4.29500e-06	0.001575753315652067
4.29525e-06	0.001732571569403024
4.29550e-06	0.0019677413368888695
4.29575e-06	0.0021010096731356015
4.29600e-06	0.0020944458277137737
4.29625e-06	0.001990267755361292
4.29650e-06	0.001801508476967184
4.29675e-06	0.001708229667965123
4.29700e-06	0.001752737673213711
4.29725e-06	0.0018681159922211894
4.29750e-06	0.0020329727274973524
4.29775e-06	0.002134291147242729
4.29800e-06	0.0021482111088436356
4.29825e-06	0.002101076925147252
4.29850e-06	0.002000950714829929
4.29875e-06	0.0019605151123216996
4.29900e-06	0.002006156980673687
4.29925e-06	0.0020958464235841232
4.29950e-06	0.0022160733786110052
4.29975e-06	0.002295937013226796
4.30000e-06	0.0023203886072086784
4.30025e-06	0.0023058274332954007
4.30050e-06	0.002257199671132168
4.30075e-06	0.002244982105435561
4.30100e-06	0.002285592198412798
4.30125e-06	0.0023525918130098107
4.30150e-06	0.002437408823041502
4.30175e-06	0.0024955241102827905
4.30200e-06	0.002517407488477377
4.30225e-06	0.002513226614178048
4.30250e-06	0.0024859745326837506
4.30275e-06	0.0024796938697055557
4.30300e-06	0.002504743983337913
4.30325e-06	0.002545445762681449
4.30350e-06	0.0025978238772565543
4.30375e-06	0.0026346565196379295
4.30400e-06	0.002649965728211693
4.30425e-06	0.0026500559317177478
4.30450e-06	0.0026367375159672894
4.30475e-06	0.0026375317928719337
4.30500e-06	0.0026588603067355726
4.30525e-06	0.0026907711265458166
4.30550e-06	0.00272647198045996
4.30575e-06	0.002761928654435588
4.30600e-06	0.002780088399552981
4.30625e-06	0.0027870952825533386
4.30650e-06	0.002794102165553673
4.30675e-06	0.0028013446613491346
4.30700e-06	0.00282524793477483
4.30725e-06	0.0028578575738432742
4.30750e-06	0.0028904672129118295
4.30775e-06	0.002922900499439002
4.30800e-06	0.0029429562982527025
4.30825e-06	0.0029629412169838248
4.30850e-06	0.0029779513429189024
4.30875e-06	0.0029931459644334146
4.30900e-06	0.003021289601315815
4.30925e-06	0.003049446135793646
4.30950e-06	0.003078507901514093
4.30975e-06	0.0031075696672346383
4.31000e-06	0.0031365189124273976
4.31025e-06	0.0031575707866047134
4.31050e-06	0.0031786226607821
4.31075e-06	0.0031996745349594157
4.31100e-06	0.003220726409136731
4.31125e-06	0.0032420361136758944
4.31150e-06	0.0032635895567997993
4.31175e-06	0.0032851429999237775
4.31200e-06	0.0033066964430476823
4.31225e-06	0.003328135181520145
4.31250e-06	0.003341523253971146
4.31275e-06	0.003354911326422102
4.31300e-06	0.0033682308639067927
4.31325e-06	0.003376740203050654
4.31350e-06	0.0033852495421944867
4.31375e-06	0.0033934831540768195
4.31400e-06	0.003382364559519735
4.31425e-06	0.003371245964962688
4.31450e-06	0.0033599446148564927
4.31475e-06	0.0033358163752545606
4.31500e-06	0.00331168813565271
4.31525e-06	0.0032873342459116975
4.31550e-06	0.0032471428649836014
4.31575e-06	0.003206951484055641
4.31600e-06	0.0031664973672223856
4.31625e-06	0.0031076028559101393
4.31650e-06	0.003048708344597893
4.31675e-06	0.00298965112842758
4.31700e-06	0.002919174301526343
4.31725e-06	0.0028486974746251056
4.31750e-06	0.002778028422308237
4.31775e-06	0.002693867828038604
4.31800e-06	0.0026097072337689705
4.31825e-06	0.0025254127236443626
4.31850e-06	0.0024317191891111796
4.31875e-06	0.002338025654577997
4.31900e-06	0.0022442611832688662
4.31925e-06	0.0021455179401259038
4.31950e-06	0.0020467746969829413
4.31975e-06	0.001948031453839644
4.32000e-06	0.0018492735831552283
4.32025e-06	0.0017494890631658466
4.32050e-06	0.0016497045431768031
4.32075e-06	0.0015499200231877596
4.32100e-06	0.0014502175422090708
4.32125e-06	0.0013562730550471364
4.32150e-06	0.0012624068177502113
4.32175e-06	0.0011740326291144135
4.32200e-06	0.0010857363632705136
4.32225e-06	0.0010029738353428018
4.32250e-06	0.0009248279101559392
4.32275e-06	0.0008523431016707034
4.32300e-06	0.0007860995728311476
4.32325e-06	0.0007257320616463893
4.32350e-06	0.0006704368802433022
4.32375e-06	0.0006196603025662869
4.32400e-06	0.000573549711838832
4.32425e-06	0.000532411271401151
4.32450e-06	0.0004965090238961078
4.32475e-06	0.0004663449110979776
4.32500e-06	0.00044212976343666673
4.32525e-06	0.0004234823355749431
4.32550e-06	0.0004097467617499278
4.32575e-06	0.0004004238043333404
4.32600e-06	0.00039545344668198056
4.32625e-06	0.00039487503946605975
4.32650e-06	0.00039870165448893847
4.32675e-06	0.0004070952923327177
4.32700e-06	0.00042003559939844497
4.32725e-06	0.00043713136723602235
4.32750e-06	0.00045781946846372825
4.32775e-06	0.0004816348324849244
4.32800e-06	0.0005083876028434399
4.32825e-06	0.0005379685209360441
4.32850e-06	0.0005714685431909283
4.32875e-06	0.0006050359090474703
4.32900e-06	0.0006433298560476566
4.32925e-06	0.0006816743917677829
4.32950e-06	0.0007235695497359294
4.32975e-06	0.000765464707703934
4.33000e-06	0.0008073860315463914
4.33025e-06	0.0008511438346637586
4.33050e-06	0.0008949016377809777
4.33075e-06	0.0009386594408981967
4.33100e-06	0.000982417244015564
4.33125e-06	0.0010244664222938701
4.33150e-06	0.0010649003610123898
4.33175e-06	0.0011053342997310463
4.33200e-06	0.001145768238449566
4.33225e-06	0.0011860900189642352
4.33250e-06	0.0012185398586010289
4.33275e-06	0.001250989698237712
4.33300e-06	0.0012833156228343346
4.33325e-06	0.0013069444407056276
4.33350e-06	0.0013305732585768405
4.33375e-06	0.0013540691565313311
4.33400e-06	0.0013682359310699871
4.33425e-06	0.0013824027056086434
4.33450e-06	0.001396429238691755
4.33475e-06	0.001400612778502035
4.33500e-06	0.0014047963183123151
4.33525e-06	0.0014088421825580516
4.33550e-06	0.001403225143279902
4.33575e-06	0.0013976081040017524
4.33600e-06	0.0013918638287978
4.33625e-06	0.0013771893670406568
4.33650e-06	0.0013625149052835133
4.33675e-06	0.0013477249702513456
4.33700e-06	0.0013248304226200025
4.33725e-06	0.0013019358749886594
4.33750e-06	0.0012789454452356624
4.33775e-06	0.0012492254284804988
4.33800e-06	0.0012195054117252345
4.33825e-06	0.0011897112915780377
4.33850e-06	0.0011547161473449302
4.33875e-06	0.0011197210031117042
4.33900e-06	0.0010846691345333388
4.33925e-06	0.001045636008447357
4.33950e-06	0.0010066028823612426
4.33975e-06	0.0009675697562752607
4.34000e-06	0.0009285366301892788
4.34025e-06	0.0008891150962540574
4.34050e-06	0.000849326382989246
4.34075e-06	0.0008095376697244345
4.34100e-06	0.0007697489564594882
4.34125e-06	0.0007300020913317547
4.34150e-06	0.0006931923814773307
4.34175e-06	0.000656382671622782
4.34200e-06	0.0006196299673968223
4.34225e-06	0.0005868782628305305
4.34250e-06	0.0005541885926468461
4.34275e-06	0.0005258528704835266
4.34300e-06	0.0004975695720586599
4.34325e-06	0.000472965688555655
4.34350e-06	0.00044838808826481693
4.34375e-06	0.000425655202710307
4.34400e-06	0.00040295339567340577
4.34425e-06	0.00038243286689497197
4.34450e-06	0.0003619520568919853
4.34475e-06	0.00034425895069050793
4.34500e-06	0.00032659942920674486
4.34525e-06	0.00031129708626191453
4.34550e-06	0.000296011842511761
4.34575e-06	0.0002819267236200897
4.34600e-06	0.00026786159790961455
4.34625e-06	0.00025519971453493844
4.34650e-06	0.00024256312599738896
4.34675e-06	0.00023170188206115573
4.34700e-06	0.000220861979461976
4.34725e-06	0.0002115199409236374
4.34750e-06	0.000202188808035679
4.34775e-06	0.0001936230996228902
4.34800e-06	0.00018507000132184984
4.34825e-06	0.0001774019569037533
4.34850e-06	0.00016974973445854345
4.34875e-06	0.00016320799372718513
4.34900e-06	0.00015667948945325325
4.34925e-06	0.00015107999978486905
4.34950e-06	0.0001454871017704532
4.34975e-06	0.0001403568458845653
4.35000e-06	0.00013523414171540067
4.35025e-06	0.00013064146268186355
4.35050e-06	0.00012605823964792
4.35075e-06	0.00012213869583306132
4.35100e-06	0.00011822775265262853
4.35125e-06	0.00011492045399250543
4.35150e-06	0.00011161315533237111
4.35175e-06	0.00010830928712743895
4.35200e-06	0.00010524816626851509
4.35225e-06	0.00010232808847403744
4.35250e-06	9.95696784073741e-05
4.35275e-06	9.69956497470256e-05
4.35300e-06	9.476064950651988e-05
4.35325e-06	9.358330324223155e-05
4.35350e-06	9.449155737818797e-05
4.35375e-06	9.791719129426026e-05
4.35400e-06	0.00010377883203533559
4.35425e-06	0.0001119533258229537
4.35450e-06	0.0001223174575856948
4.35475e-06	0.00013474934824002789
4.35500e-06	0.00014920976708720607
4.35525e-06	0.00016601272698693218
4.35550e-06	0.0001856659420461565
4.35575e-06	0.00020830369170042303
4.35600e-06	0.00023373878559815244
4.35625e-06	0.0002617578637627639
4.35650e-06	0.0002921475817917299
4.35675e-06	0.00032469537619379054
4.35700e-06	0.00035924057620673866
4.35725e-06	0.00039584366108316537
4.35750e-06	0.00043470013725400476
4.35775e-06	0.00047667243007399647
4.35800e-06	0.000518691592108355
4.35825e-06	0.0005640003189480761
4.35850e-06	0.0006093554407909696
4.35875e-06	0.0006579668444409958
4.35900e-06	0.0007065782480908573
4.35925e-06	0.0007551896517408836
4.35950e-06	0.0008038010553907451
4.35975e-06	0.0008532191098130599
4.36000e-06	0.000903399727326177
4.36025e-06	0.0009535803448391239
4.36050e-06	0.001003760962352071
4.36075e-06	0.0010538848159072785
4.36100e-06	0.0011000246317295222
4.36125e-06	0.001146164447551766
4.36150e-06	0.001192304263374166
4.36175e-06	0.0012384440791964096
4.36200e-06	0.0012844342147675868
4.36225e-06	0.0013199188854290968
4.36250e-06	0.0013554035560904866
4.36275e-06	0.0013908882267518765
4.36300e-06	0.0014263728974133864
4.36325e-06	0.0014616897183492357
4.36350e-06	0.001485225830819247
4.36375e-06	0.0015087619432891783
4.36400e-06	0.0015321657392914473
4.36425e-06	0.001546282765682624
4.36450e-06	0.0015603997920737526
4.36475e-06	0.0015743769422398703
4.36500e-06	0.0015785367333245118
4.36525e-06	0.001582696524409139
4.36550e-06	0.0015867281653964747
4.36575e-06	0.0015817654578371902
4.36600e-06	0.0015768027502779225
4.36625e-06	0.0015717205682441874
4.36650e-06	0.0015582529453232708
4.36675e-06	0.0015447853224024
4.36700e-06	0.0015312112746919578
4.36725e-06	0.0015101676918724844
4.36750e-06	0.0014891241090530822
4.36775e-06	0.0014679635298854466
4.36800e-06	0.0014385914397221163
4.36825e-06	0.0014092193495587862
4.36850e-06	0.0013798472593953563
4.36875e-06	0.001350475169232026
4.36900e-06	0.001321103079068696
4.36925e-06	0.0012916515675709536
4.36950e-06	0.001256625786705652
4.36975e-06	0.00122160000584035
4.37000e-06	0.0011865742249749299
4.37025e-06	0.001151548444109628
4.37050e-06	0.0011165226632443264
4.37075e-06	0.0010815170184368976
4.37100e-06	0.0010479246439072081
4.37125e-06	0.0010143322693775185
4.37150e-06	0.0009807398948477152
4.37175e-06	0.0009471475203180256
4.37200e-06	0.0009136614202877555
4.37225e-06	0.0008876343070885215
4.37250e-06	0.0008616071938892876
4.37275e-06	0.0008355800806899654
4.37300e-06	0.0008095529674907314
4.37325e-06	0.0007836321800598172
4.37350e-06	0.0007651739778113155
4.37375e-06	0.0007467781304779978
4.37400e-06	0.0007327587280354978
4.37425e-06	0.0007188053535427689
4.37450e-06	0.0007094862197190314
4.37475e-06	0.0007002357050844064
4.37500e-06	0.0006958012999568511
4.37525e-06	0.0006914314574901536
4.37550e-06	0.0006915930128530189
4.37575e-06	0.0006918149144913137
4.37600e-06	0.0006962722825410843
4.37625e-06	0.0007007877453745494
4.37650e-06	0.0007093806513169001
4.37675e-06	0.0007180410881115549
4.37700e-06	0.0007314412483534724
4.37725e-06	0.0007448414085953445
4.37750e-06	0.0007583081939686808
4.37775e-06	0.0007764511338243973
4.37800e-06	0.0007945940736800523
4.37825e-06	0.0008128073941516362
4.37850e-06	0.0008359604517064514
4.37875e-06	0.0008591135092611881
4.37900e-06	0.0008822665668159249
4.37925e-06	0.00090541962437074
4.37950e-06	0.0009285726819254767
4.37975e-06	0.0009517582676148452
4.38000e-06	0.00097722687442719
4.38025e-06	0.0010026954812394485
4.38050e-06	0.0010281640880517935
4.38075e-06	0.001053632694864052
4.38100e-06	0.0010791013016763105
4.38125e-06	0.001104489847089473
4.38150e-06	0.0011242591995363005
4.38175e-06	0.001144028551983128
4.38200e-06	0.0011637979044300227
4.38225e-06	0.0011835672568768503
4.38250e-06	0.001203336609323678
4.38275e-06	0.0012231059617705726
4.38300e-06	0.0012428753142174002
4.38325e-06	0.0012626446666642278
4.38350e-06	0.0012822190384611295
4.38375e-06	0.0012881084895923541
4.38400e-06	0.0012939979407235788
4.38425e-06	0.0012998873918548233
4.38450e-06	0.001305776842986048
4.38475e-06	0.0013116662941172925
4.38500e-06	0.0013175557452485172
4.38525e-06	0.0013234451963797418
4.38550e-06	0.0013293346475109864
4.38575e-06	0.0013350405252005974
4.38600e-06	0.0013278621090741898
4.38625e-06	0.0013206836929477578
4.38650e-06	0.00131350527682135
4.38675e-06	0.0013063268606949424
4.38700e-06	0.0012991484445685104
4.38725e-06	0.0012919700284421028
4.38750e-06	0.001284791612315695
4.38775e-06	0.001277497289539979
4.38800e-06	0.0012620679374790874
4.38825e-06	0.0012466385854181957
4.38850e-06	0.0012312092333572517
4.38875e-06	0.00121577988129636
4.38900e-06	0.0012003505292354161
4.38925e-06	0.0011849211771745244
4.38950e-06	0.0011694918251136327
4.38975e-06	0.0011540289735150718
4.39000e-06	0.0011362149218686144
4.39025e-06	0.0011184008702221572
4.39050e-06	0.0011005868185756395
4.39075e-06	0.0010827727669291821
4.39100e-06	0.0010649587152827247
4.39125e-06	0.001047144663636207
4.39150e-06	0.0010308814394596895
4.39175e-06	0.001016084281923361
4.39200e-06	0.0010012871243869823
4.39225e-06	0.0009864899668506537
4.39250e-06	0.0009716928093143252
4.39275e-06	0.0009568956517779464
4.39300e-06	0.0009421768685851359
4.39325e-06	0.0009329588705722043
4.39350e-06	0.0009237408725593039
4.39375e-06	0.0009145927630534626
4.39400e-06	0.0009103498514290365
4.39425e-06	0.0009061069398046247
4.39450e-06	0.0009019350674406677
4.39475e-06	0.0009027491597862062
4.39500e-06	0.0009035632521317419
4.39525e-06	0.0009044518616186395
4.39550e-06	0.0009105705345185621
4.39575e-06	0.000916689207418464
4.39600e-06	0.0009228775984747265
4.39625e-06	0.0009339592311671308
4.39650e-06	0.0009450408638594977
