Time(s)	Current(A)
3.75000e-06	-0.008379464165889715
3.75025e-06	-0.008403135052581966
3.75050e-06	-0.008426805939274215
3.75075e-06	-0.008450476825966426
3.75100e-06	-0.008474147712658675
3.75125e-06	-0.008497818599350926
3.75150e-06	-0.008521489486043175
3.75175e-06	-0.008545160372735386
3.75200e-06	-0.008573447369034601
3.75225e-06	-0.008602384541767453
3.75250e-06	-0.008631321714500257
3.75275e-06	-0.00866025888723311
3.75300e-06	-0.008689196059965962
3.75325e-06	-0.008718133232698815
3.75350e-06	-0.008747070405431618
3.75375e-06	-0.008776007578164472
3.75400e-06	-0.008804944750897324
3.75425e-06	-0.008830859779415242
3.75450e-06	-0.008851770858315346
3.75475e-06	-0.008872681937215448
3.75500e-06	-0.008893593016115515
3.75525e-06	-0.008914504095015617
3.75550e-06	-0.008935415173915719
3.75575e-06	-0.008956326252815821
3.75600e-06	-0.008977237331715888
3.75625e-06	-0.00899814841061599
3.75650e-06	-0.009019059489516094
3.75675e-06	-0.009033788534701414
3.75700e-06	-0.00903828160733039
3.75725e-06	-0.009042774679959367
3.75750e-06	-0.009047267752588333
3.75775e-06	-0.00905176082521731
3.75800e-06	-0.009056253897846285
3.75825e-06	-0.00906074697047526
3.75850e-06	-0.009065240043104229
3.75875e-06	-0.009069733115733204
3.75900e-06	-0.00907422618836218
3.75925e-06	-0.009073247509715325
3.75950e-06	-0.009063208916729626
3.75975e-06	-0.009053170323743927
3.76000e-06	-0.009043131730758228
3.76025e-06	-0.009033093137772546
3.76050e-06	-0.009023054544786847
3.76075e-06	-0.009013015951801148
3.76100e-06	-0.009002977358815466
3.76125e-06	-0.008992938765829767
3.76150e-06	-0.008982900172844067
3.76175e-06	-0.008972861579858386
3.76200e-06	-0.00895834523791867
3.76225e-06	-0.008943198207565124
3.76250e-06	-0.008928051177211576
3.76275e-06	-0.008912904146858055
3.76300e-06	-0.008897757116504507
3.76325e-06	-0.00888261008615096
3.76350e-06	-0.008867463055797439
3.76375e-06	-0.00885231602544389
3.76400e-06	-0.008837168995090343
3.76425e-06	-0.008822021964736797
3.76450e-06	-0.008809845116630233
3.76475e-06	-0.008802586181523105
3.76500e-06	-0.008795327246415977
3.76525e-06	-0.008788068311308862
3.76550e-06	-0.008780809376201733
3.76575e-06	-0.008773550441094605
3.76600e-06	-0.00876629150598749
3.76625e-06	-0.008759032570880362
3.76650e-06	-0.008751773635773234
3.76675e-06	-0.008751614958967126
3.76700e-06	-0.00876321261550851
3.76725e-06	-0.008774810272049915
3.76750e-06	-0.00878640792859132
3.76775e-06	-0.008798005585132706
3.76800e-06	-0.00880960324167411
3.76825e-06	-0.008821200898215515
3.76850e-06	-0.00883279855475692
3.76875e-06	-0.008844396211298306
3.76900e-06	-0.008862757692450467
3.76925e-06	-0.008892318453045372
3.76950e-06	-0.008921879213640228
3.76975e-06	-0.008951439974235132
3.77000e-06	-0.008981000734830036
3.77025e-06	-0.00901056149542489
3.77050e-06	-0.009040122256019795
3.77075e-06	-0.0090696830166147
3.77100e-06	-0.009102834741105757
3.77125e-06	-0.009141932244864658
3.77150e-06	-0.009181029748623625
3.77175e-06	-0.009220127252382592
3.77200e-06	-0.009259224756141493
3.77225e-06	-0.00929832225990046
3.77250e-06	-0.009337419763659427
3.77275e-06	-0.009376517267418394
3.77300e-06	-0.009414623603957527
3.77325e-06	-0.009451088804111935
3.77350e-06	-0.009487554004266343
3.77375e-06	-0.00952401920442069
3.77400e-06	-0.009560484404575098
3.77425e-06	-0.009596949604729507
3.77450e-06	-0.009633414804883852
3.77475e-06	-0.00966988000503826
3.77500e-06	-0.009706345205192668
3.77525e-06	-0.009742810405347076
3.77550e-06	-0.009762332225845853
3.77575e-06	-0.009779467580879227
3.77600e-06	-0.0097966029359126
3.77625e-06	-0.009813738290945945
3.77650e-06	-0.00983087364597932
3.77675e-06	-0.009848009001012695
3.77700e-06	-0.009865144356046069
3.77725e-06	-0.009882279711079413
3.77750e-06	-0.009899415066112787
3.77775e-06	-0.009907419870343215
3.77800e-06	-0.009900306661348958
3.77825e-06	-0.009893193452354686
3.77850e-06	-0.009886080243360415
3.77875e-06	-0.009878967034366156
3.77900e-06	-0.009871853825371885
3.77925e-06	-0.009864740616377614
3.77950e-06	-0.009857627407383343
3.77975e-06	-0.00984404362511494
3.78000e-06	-0.009819746117635142
3.78025e-06	-0.009795448610155345
3.78050e-06	-0.009771151102675589
3.78075e-06	-0.009746853595195792
3.78100e-06	-0.009722556087715994
3.78125e-06	-0.009698258580236197
3.78150e-06	-0.009673961072756442
3.78175e-06	-0.009646954236856816
3.78200e-06	-0.009615461399645154
3.78225e-06	-0.009583968562433546
3.78250e-06	-0.009552475725221884
3.78275e-06	-0.009520982888010222
3.78300e-06	-0.009489490050798613
3.78325e-06	-0.009457997213586951
3.78350e-06	-0.009426504376375289
3.78375e-06	-0.009395011539163627
3.78400e-06	-0.009369885684322338
3.78425e-06	-0.009345656615355863
3.78450e-06	-0.009321427546389387
3.78475e-06	-0.009297198477422953
3.78500e-06	-0.009272969408456478
3.78525e-06	-0.009248740339490002
3.78550e-06	-0.009224511270523527
3.78575e-06	-0.009200282201557093
3.78600e-06	-0.009182441908849613
3.78625e-06	-0.009175179905016762
3.78650e-06	-0.009167917901183922
3.78675e-06	-0.009160655897351069
3.78700e-06	-0.009153393893518217
3.78725e-06	-0.009146131889685378
3.78750e-06	-0.009138869885852526
3.78775e-06	-0.009131607882019672
3.78800e-06	-0.00912434587818682
3.78825e-06	-0.009117083874353981
3.78850e-06	-0.00910982187052113
3.78875e-06	-0.009102559866688276
3.78900e-06	-0.009095297862855437
3.78925e-06	-0.009088035859022585
3.78950e-06	-0.009080773855189734
3.78975e-06	-0.009084967259948626
3.79000e-06	-0.00909077415254506
3.79025e-06	-0.009096581045141503
3.79050e-06	-0.009102387937737946
3.79075e-06	-0.00910819483033438
3.79100e-06	-0.009114001722930823
3.79125e-06	-0.009119808615527266
3.79150e-06	-0.0091256155081237
3.79175e-06	-0.009131422400720141
3.79200e-06	-0.009137229293316585
3.79225e-06	-0.009143036185913028
3.79250e-06	-0.009148843078509461
3.79275e-06	-0.009154649971105905
3.79300e-06	-0.009160456863702348
3.79325e-06	-0.009167314157116512
3.79350e-06	-0.00917591066361846
3.79375e-06	-0.009184507170120405
3.79400e-06	-0.009193103676622353
3.79425e-06	-0.009201700183124285
3.79450e-06	-0.009210296689626233
3.79475e-06	-0.00921889319612818
3.79500e-06	-0.009227604775789553
3.79525e-06	-0.009236506889142055
3.79550e-06	-0.00924540900249456
3.79575e-06	-0.009254311115847047
3.79600e-06	-0.009263213229199551
3.79625e-06	-0.009272115342552054
3.79650e-06	-0.009281017455904556
3.79675e-06	-0.009292361855541689
3.79700e-06	-0.00930775009844206
3.79725e-06	-0.009323138341342432
3.79750e-06	-0.009338526584242777
3.79775e-06	-0.009353914827143149
3.79800e-06	-0.00936930307004352
3.79825e-06	-0.009384691312943892
3.79850e-06	-0.009400079555844237
3.79875e-06	-0.009415467798744609
3.79900e-06	-0.00943085604164498
3.79925e-06	-0.009449337282744582
3.79950e-06	-0.009472939790753062
3.79975e-06	-0.009496542298761542
3.80000e-06	-0.009520144806769982
3.80025e-06	-0.009543747314778462
3.80050e-06	-0.009567349822786942
3.80075e-06	-0.009590952330795422
3.80100e-06	-0.009614554838803862
3.80125e-06	-0.009638157346812342
3.80150e-06	-0.009661759854820822
3.80175e-06	-0.009686417091580265
3.80200e-06	-0.009712820707452333
3.80225e-06	-0.009739224323324401
3.80250e-06	-0.00976562793919647
3.80275e-06	-0.009792031555068494
3.80300e-06	-0.009818435170940562
3.80325e-06	-0.00984483878681263
3.80350e-06	-0.009871242402684654
3.80375e-06	-0.009894477852179773
3.80400e-06	-0.009917267067227925
3.80425e-06	-0.009940056282276039
3.80450e-06	-0.00996284549732419
3.80475e-06	-0.009985634712372342
3.80500e-06	-0.010008423927420493
3.80525e-06	-0.010031213142468607
3.80550e-06	-0.010052322893894662
3.80575e-06	-0.010070651854347424
3.80600e-06	-0.010088980814800155
3.80625e-06	-0.010107309775252918
3.80650e-06	-0.01012563873570568
3.80675e-06	-0.010143967696158442
3.80700e-06	-0.010162296656611175
3.80725e-06	-0.010180625617063937
3.80750e-06	-0.010198954577516699
3.80775e-06	-0.01021728353796943
3.80800e-06	-0.010235612498422192
3.80825e-06	-0.01025556582267828
3.80850e-06	-0.010275747937659714
3.80875e-06	-0.010295930052641181
3.80900e-06	-0.010316112167622649
3.80925e-06	-0.010336294282604118
3.80950e-06	-0.010356476397585551
3.80975e-06	-0.01037665851256702
3.81000e-06	-0.010396840627548488
3.81025e-06	-0.010417022742529921
3.81050e-06	-0.01043720485751139
3.81075e-06	-0.01045793651396692
3.81100e-06	-0.010479578079961712
3.81125e-06	-0.01050121964595647
3.81150e-06	-0.010522861211951262
3.81175e-06	-0.010544502777946056
3.81200e-06	-0.010566144343940811
3.81225e-06	-0.010587785909935605
3.81250e-06	-0.010609427475930397
3.81275e-06	-0.010631069041925153
3.81300e-06	-0.010652710607919946
3.81325e-06	-0.010674352173914738
3.81350e-06	-0.010694333620467986
3.81375e-06	-0.01071156630539452
3.81400e-06	-0.01072879899032108
3.81425e-06	-0.010746031675247642
3.81450e-06	-0.010763264360174173
3.81475e-06	-0.010780497045100734
3.81500e-06	-0.010797729730027267
3.81525e-06	-0.010814962414953857
3.81550e-06	-0.010832195099880388
3.81575e-06	-0.010849427784806921
3.81600e-06	-0.010866660469733511
3.81625e-06	-0.010881254889225632
3.81650e-06	-0.010891480970750244
3.81675e-06	-0.010901707052274822
3.81700e-06	-0.010911933133799399
3.81725e-06	-0.010922159215324011
3.81750e-06	-0.010932385296848588
3.81775e-06	-0.010942611378373166
3.81800e-06	-0.010952837459897778
3.81825e-06	-0.010963063541422355
3.81850e-06	-0.010973289622946933
3.81875e-06	-0.010983515704471545
3.81900e-06	-0.010993741785996122
3.81925e-06	-0.0110039678675207
3.81950e-06	-0.011014193949045311
3.81975e-06	-0.011024420030569889
3.82000e-06	-0.011034646112094466
3.82025e-06	-0.011044872193619078
3.82050e-06	-0.011055098275143655
3.82075e-06	-0.011062012063281348
3.82100e-06	-0.01106845931676403
3.82125e-06	-0.011074906570246712
3.82150e-06	-0.011081353823729415
3.82175e-06	-0.011087801077212097
3.82200e-06	-0.011094248330694778
3.82225e-06	-0.011100695584177483
3.82250e-06	-0.011107142837660164
3.82275e-06	-0.011113590091142846
3.82300e-06	-0.01112003734462555
3.82325e-06	-0.01112648459810823
3.82350e-06	-0.011132931851590913
3.82375e-06	-0.011139379105073616
3.82400e-06	-0.011145826358556299
3.82425e-06	-0.01115227361203898
3.82450e-06	-0.011158720865521684
3.82475e-06	-0.011165168119004365
3.82500e-06	-0.011171245865909172
3.82525e-06	-0.01117671179809959
3.82550e-06	-0.011181299978079899
3.82575e-06	-0.011184434809866065
3.82600e-06	-0.01118756964165222
3.82625e-06	-0.011188134689900325
3.82650e-06	-0.011184444789859686
3.82675e-06	-0.01118075488981906
3.82700e-06	-0.011172985447621584
3.82725e-06	-0.011158461257149808
3.82750e-06	-0.011143937066678081
3.82775e-06	-0.011129412876206356
3.82800e-06	-0.01111488868573458
3.82825e-06	-0.011100364495262853
3.82850e-06	-0.011085840304791128
3.82875e-06	-0.011057520447778916
3.82900e-06	-0.011027257478917784
3.82925e-06	-0.010996994510056549
3.82950e-06	-0.010966731541195417
3.82975e-06	-0.010936468572334285
3.83000e-06	-0.010906205603473051
3.83025e-06	-0.010871780628688129
3.83050e-06	-0.010830464365310462
3.83075e-06	-0.010789148101932655
3.83100e-06	-0.010747831838554989
3.83125e-06	-0.010706515575177322
3.83150e-06	-0.01066346142905257
3.83175e-06	-0.010617529763825753
3.83200e-06	-0.010571598098598936
3.83225e-06	-0.010525666433371963
3.83250e-06	-0.010479734768145146
3.83275e-06	-0.010433803102918329
3.83300e-06	-0.010387871437691357
3.83325e-06	-0.01034193977246454
3.83350e-06	-0.010298818238127477
3.83375e-06	-0.01026034960993702
3.83400e-06	-0.010221880981746562
3.83425e-06	-0.010183412353555974
3.83450e-06	-0.010144943725365516
3.83475e-06	-0.010106475097175058
3.83500e-06	-0.01006800646898447
3.83525e-06	-0.010029537840794012
3.83550e-06	-0.00999896785155232
3.83575e-06	-0.009981476123484866
3.83600e-06	-0.009963984395417472
3.83625e-06	-0.009946492667350077
3.83650e-06	-0.009929000939282624
3.83675e-06	-0.00991150921121523
3.83700e-06	-0.009894017483147836
3.83725e-06	-0.009876525755080382
3.83750e-06	-0.009879115153589798
3.83775e-06	-0.009884532967447214
3.83800e-06	-0.009889950781304613
3.83825e-06	-0.00989536859516201
3.83850e-06	-0.009900786409019426
3.83875e-06	-0.009906204222876823
3.83900e-06	-0.009911622036734222
3.83925e-06	-0.009924108241538011
3.83950e-06	-0.009948298014952828
3.83975e-06	-0.009972487788367644
3.84000e-06	-0.009996677561782543
3.84025e-06	-0.010020867335197359
3.84050e-06	-0.010045057108612174
3.84075e-06	-0.010069246882027073
3.84100e-06	-0.010097514463467268
3.84125e-06	-0.010132533921871877
3.84150e-06	-0.010167553380276605
3.84175e-06	-0.010202572838681213
3.84200e-06	-0.010237592297085941
3.84225e-06	-0.01027261175549055
3.84250e-06	-0.01030763121389516
3.84275e-06	-0.010343596155860479
3.84300e-06	-0.010381126592972334
3.84325e-06	-0.010418657030084188
3.84350e-06	-0.01045576068955336
3.84375e-06	-0.010492157707091908
3.84400e-06	-0.010528554724630455
3.84425e-06	-0.010563715010462478
3.84450e-06	-0.010596827563721215
3.84475e-06	-0.010629940116979953
3.84500e-06	-0.010661051105303724
3.84525e-06	-0.010688847979747413
3.84550e-06	-0.010716644854191104
3.84575e-06	-0.01074171636003933
3.84600e-06	-0.010762275305873967
3.84625e-06	-0.010782834251708673
3.84650e-06	-0.010799187456010126
3.84675e-06	-0.010808576955989016
3.84700e-06	-0.010817966455967939
3.84725e-06	-0.010827355955946829
3.84750e-06	-0.01083674545592572
3.84775e-06	-0.010843411727162166
3.84800e-06	-0.010839146830802369
3.84825e-06	-0.01083488193444257
3.84850e-06	-0.010830617038082756
3.84875e-06	-0.010826352141722957
3.84900e-06	-0.010822171468696106
3.84925e-06	-0.01081109967677329
3.84950e-06	-0.0343821458240468
3.84975e-06	-0.049081793493718474
3.85000e-06	-0.03181690094909978
3.85025e-06	-0.01188122867838928
3.85050e-06	0.01087005608553266
3.85075e-06	0.015079940840741875
3.85100e-06	0.0058893677014278615
3.85125e-06	-0.010245993455715521
3.85150e-06	-0.02975223931676593
3.85175e-06	-0.032458234739447867
3.85200e-06	-0.022797727180260824
3.85225e-06	-0.009738349026030041
3.85250e-06	0.00424378782033547
3.85275e-06	0.006676243716482794
3.85300e-06	0.0008023584698557389
3.85325e-06	-0.009374122468764165
3.85350e-06	-0.021636052010368938
3.85375e-06	-0.023360406996683913
3.85400e-06	-0.01733168451128303
3.85425e-06	-0.009171128194889484
3.85450e-06	-0.0004318304880484942
3.85475e-06	0.0010726892992643923
3.85500e-06	-0.0026260374012631958
3.85525e-06	-0.009020130984518362
3.85550e-06	-0.01672084329268688
3.85575e-06	-0.01782134891050451
3.85600e-06	-0.014066111005058475
3.85625e-06	-0.008976342887561288
3.85650e-06	-0.003524914232372638
3.85675e-06	-0.002605982826591359
3.85700e-06	-0.00494661205212475
3.85725e-06	-0.008975607988760263
3.85750e-06	-0.013822910065339694
3.85775e-06	-0.014535807358314133
3.85800e-06	-0.012207315252380243
3.85825e-06	-0.009043254391577306
3.85850e-06	-0.0056530361500469915
3.85875e-06	-0.0051021921921096825
3.85900e-06	-0.006593089506402617
3.85925e-06	-0.009141348901223943
3.85950e-06	-0.012201847235175669
3.85975e-06	-0.012672261503376322
3.86000e-06	-0.011237414469308104
3.86025e-06	-0.00927909261191248
3.86050e-06	-0.007179012051286274
3.86075e-06	-0.006857293807256683
3.86100e-06	-0.007814111512889252
3.86125e-06	-0.009432711957467673
3.86150e-06	-0.0113715367316762
3.86175e-06	-0.01168730131676475
3.86200e-06	-0.010809054786608333
3.86225e-06	-0.009602362713106142
3.86250e-06	-0.008306298448701815
3.86275e-06	-0.008123522927977007
3.86300e-06	-0.008740802978756656
3.86325e-06	-0.009771696183900646
3.86350e-06	-0.01100216727685369
3.86375e-06	-0.011214928063058658
3.86400e-06	-0.010678758483793961
3.86425e-06	-0.009935836576347504
3.86450e-06	-0.009135871117526152
3.86475e-06	-0.009032122373685954
3.86500e-06	-0.009428270090551423
3.86525e-06	-0.010082154654598451
3.86550e-06	-0.010859649969333467
3.86575e-06	-0.010998337849894502
3.86600e-06	-0.010666806372737581
3.86625e-06	-0.010204844353680189
3.86650e-06	-0.00970630670430411
3.86675e-06	-0.009643065463327482
3.86700e-06	-0.009892160514965572
3.86725e-06	-0.010301929147088192
3.86750e-06	-0.010788391530127905
3.86775e-06	-0.010874032453175472
3.86800e-06	-0.010664534607936569
3.86825e-06	-0.010372805884481364
3.86850e-06	-0.010057688514019805
3.86875e-06	-0.010014796207400313
3.86900e-06	-0.010167133728690169
3.86925e-06	-0.010419732790362159
3.86950e-06	-0.010720027329465786
3.86975e-06	-0.010768958343202626
3.87000e-06	-0.010632791374118732
3.87025e-06	-0.010444947243003213
3.87050e-06	-0.010242334101873437
3.87075e-06	-0.010210163703943561
3.87100e-06	-0.010300236465365532
3.87125e-06	-0.010453101954552669
3.87150e-06	-0.010635874355326038
3.87175e-06	-0.010661273728098794
3.87200e-06	-0.010570866349283989
3.87225e-06	-0.010448279430654243
3.87250e-06	-0.010316678355898215
3.87275e-06	-0.010292119456243956
3.87300e-06	-0.010344447401534326
3.87325e-06	-0.010436462078907529
3.87350e-06	-0.010547604331918769
3.87375e-06	-0.010560611742924162
3.87400e-06	-0.010501573181136013
3.87425e-06	-0.010422921652657206
3.87450e-06	-0.010339212166369651
3.87475e-06	-0.01032318392953153
3.87500e-06	-0.010355987038256997
3.87525e-06	-0.010414358820832794
3.87550e-06	-0.010485526434771946
3.87575e-06	-0.010496411156344566
3.87600e-06	-0.010463904969733121
3.87625e-06	-0.010421126734121884
3.87650e-06	-0.010377157812097425
3.87675e-06	-0.010377451049171668
3.87700e-06	-0.010410082182284208
3.87725e-06	-0.010460364103803937
3.87750e-06	-0.010501243744734299
3.87775e-06	-0.01053932319650389
3.87800e-06	-0.01054122425526705
3.87825e-06	-0.010533555870317067
3.87850e-06	-0.01054048325535619
3.87875e-06	-0.01055080929440224
3.87900e-06	-0.010589991525156089
3.87925e-06	-0.01064421199973004
3.87950e-06	-0.010693350141853625
3.87975e-06	-0.010740888571352459
3.88000e-06	-0.010766257170986027
3.88025e-06	-0.010785950951036233
3.88050e-06	-0.010814958246689979
3.88075e-06	-0.01084612262834305
3.88100e-06	-0.010895299428032384
3.88125e-06	-0.010955042954784437
3.88150e-06	-0.011016259718936487
3.88175e-06	-0.011063835319131693
3.88200e-06	-0.01110127736761282
3.88225e-06	-0.011136038385025505
3.88250e-06	-0.011170553199640871
3.88275e-06	-0.011215401448090325
3.88300e-06	-0.011267468894241857
3.88325e-06	-0.011323281042593263
3.88350e-06	-0.011379694510566734
3.88375e-06	-0.011425968291850937
3.88400e-06	-0.011464345174035709
3.88425e-06	-0.011499590284750377
3.88450e-06	-0.011532844844604097
3.88475e-06	-0.011570849141815198
3.88500e-06	-0.011611505744432584
3.88525e-06	-0.011652294615347341
3.88550e-06	-0.011687521852546505
3.88575e-06	-0.01172149091213303
3.88600e-06	-0.011745959157709878
3.88625e-06	-0.011764032879944408
3.88650e-06	-0.011781142206962669
3.88675e-06	-0.01179830916522568
3.88700e-06	-0.011815489272759612
3.88725e-06	-0.011827363261483998
3.88750e-06	-0.011838026594522523
3.88775e-06	-0.011848689927561013
3.88800e-06	-0.011848556375505595
3.88825e-06	-0.011845959382506271
3.88850e-06	-0.011839227979621806
3.88875e-06	-0.011831553260725259
3.88900e-06	-0.011823878541828684
3.88925e-06	-0.011811352182096023
3.88950e-06	-0.011797718861367039
3.88975e-06	-0.011784085540638102
3.89000e-06	-0.011761907882346184
3.89025e-06	-0.011737780729287255
3.89050e-06	-0.01171365357622841
3.89075e-06	-0.011687170872427034
3.89100e-06	-0.01166015072101048
3.89125e-06	-0.01163313056959402
3.89150e-06	-0.011602365903884183
3.89175e-06	-0.011570746881594164
3.89200e-06	-0.01153912785930425
3.89225e-06	-0.01150497154563611
3.89250e-06	-0.011470236318011418
3.89275e-06	-0.011435501090386843
3.89300e-06	-0.011402031980765216
3.89325e-06	-0.011368851751399277
3.89350e-06	-0.011335671522033451
3.89375e-06	-0.011302982422090503
3.89400e-06	-0.01127040537931217
3.89425e-06	-0.011237828336533837
3.89450e-06	-0.011208977608708419
3.89475e-06	-0.011180977085061746
3.89500e-06	-0.011152976561415073
3.89525e-06	-0.011130718687979818
3.89550e-06	-0.01110977107019071
3.89575e-06	-0.0110888234524016
3.89600e-06	-0.011073948347869251
3.89625e-06	-0.011060458761257663
3.89650e-06	-0.011046969174646074
3.89675e-06	-0.011041275730491202
3.89700e-06	-0.011037361071269234
3.89725e-06	-0.011033446412047268
