Time(s)	Current(A)
1.00000e-05	0.00591095370415556
1.00003e-05	0.00596603688131152
1.00005e-05	0.0060211200584671075
1.00008e-05	0.006076203235623068
1.00010e-05	0.0061006013958811705
1.00013e-05	0.006120490979485254
1.00015e-05	0.006140380563089473
1.00018e-05	0.006160270146693691
1.00020e-05	0.006180159730297774
1.00023e-05	0.006200049313901992
1.00025e-05	0.00621993889750621
1.00028e-05	0.006239828481110294
1.00030e-05	0.0062597180647145124
1.00033e-05	0.006242410141445094
1.00035e-05	0.006219636755613048
1.00038e-05	0.006196863369780847
1.00040e-05	0.006174089983948646
1.00042e-05	0.0061513165981166
1.00045e-05	0.0061285432122843994
1.00048e-05	0.0061057698264522
1.00050e-05	0.0060829964406201534
1.00053e-05	0.006060223054787953
1.00055e-05	0.006026516627286583
1.00057e-05	0.005974344818962537
1.00060e-05	0.005922173010638138
1.00063e-05	0.005870001202313738
1.00065e-05	0.0058178293939896925
1.00068e-05	0.005765657585665294
1.00070e-05	0.005713485777340894
1.00073e-05	0.005661313969016495
1.00075e-05	0.005609142160692449
1.00078e-05	0.00555697035236805
1.00080e-05	0.005501270295573033
1.00083e-05	0.005445051830111964
1.00085e-05	0.005388833364650513
1.00088e-05	0.005332614899189063
1.00090e-05	0.005276396433727994
1.00093e-05	0.005220177968266543
1.00095e-05	0.005163959502805092
1.00098e-05	0.005107741037344023
1.00100e-05	0.005059050563064141
1.00103e-05	0.00502307450332932
1.00105e-05	0.004987098443594742
1.00108e-05	0.004951122383859921
1.00110e-05	0.0049151463241251
1.00113e-05	0.004879170264390522
1.00115e-05	0.004843194204655701
1.00118e-05	0.004807218144920879
1.00120e-05	0.004771242085186302
1.00123e-05	0.004762527178012747
1.00125e-05	0.0047578177760828205
1.00127e-05	0.004753108374152926
1.00130e-05	0.004748398972223
1.00133e-05	0.004743689570293075
1.00135e-05	0.00473898016836318
1.00138e-05	0.004734270766433254
1.00140e-05	0.004729561364503328
1.00142e-05	0.004724851962573434
1.00145e-05	0.004720142560643507
1.00148e-05	0.004715433158713581
1.00150e-05	0.0047330956325525005
1.00153e-05	0.004754045225874371
1.00155e-05	0.00477499481919624
1.00157e-05	0.004795944412517967
1.00160e-05	0.004816894005839837
1.00163e-05	0.004837843599161706
1.00165e-05	0.004858793192483575
1.00168e-05	0.004879742785805303
1.00170e-05	0.004900692379127172
1.00173e-05	0.0049216419724490415
1.00175e-05	0.004942591565770769
1.00178e-05	0.004968365946661428
1.00180e-05	0.004994849237854622
1.00183e-05	0.005021332529047638
1.00185e-05	0.005047815820240833
1.00188e-05	0.005074299111434028
1.00190e-05	0.005100782402627044
1.00193e-05	0.005127265693820239
1.00195e-05	0.005153748985013434
1.00198e-05	0.005180232276206449
1.00200e-05	0.005206715567399644
1.00203e-05	0.00523319885859284
1.00205e-05	0.005253997903823366
1.00208e-05	0.0052651965313834075
1.00210e-05	0.005276395158943449
1.00212e-05	0.005287593786503415
1.00215e-05	0.005298792414063456
1.00218e-05	0.005309991041623498
1.00220e-05	0.005321189669183464
1.00223e-05	0.005332388296743505
1.00225e-05	0.005343586924303547
1.00227e-05	0.005354785551863513
1.00230e-05	0.005365984179423555
1.00233e-05	0.005377182806983597
1.00235e-05	0.00537212669619164
1.00238e-05	0.005364682262323704
1.00240e-05	0.005357237828455769
1.00242e-05	0.005349793394587884
1.00245e-05	0.005342348960719949
1.00248e-05	0.005334904526852014
1.00250e-05	0.005327460092984078
1.00253e-05	0.005320015659116193
1.00255e-05	0.005312571225248258
1.00258e-05	0.005305126791380323
1.00260e-05	0.005297682357512438
1.00263e-05	0.005290237923644502
1.00265e-05	0.005279506807745274
1.00268e-05	0.005263224644184977
1.00270e-05	0.005246942480624569
1.00273e-05	0.00523066031706416
1.00275e-05	0.005214378153503863
1.00278e-05	0.005198095989943454
1.00280e-05	0.005181813826383047
1.00283e-05	0.005165531662822749
1.00285e-05	0.0051492494992623405
1.00288e-05	0.005132967335701932
1.00290e-05	0.0051166851721416344
1.00293e-05	0.005100403008581227
1.00295e-05	0.005084120845020818
1.00297e-05	0.005074589072428668
1.00300e-05	0.005066049140749344
1.00303e-05	0.005057509209070019
1.00305e-05	0.005048969277390753
1.00308e-05	0.005040429345711428
1.00310e-05	0.005031889414032104
1.00312e-05	0.005023349482352837
1.00315e-05	0.005014809550673513
1.00318e-05	0.005006269618994189
1.00320e-05	0.004997729687314922
1.00323e-05	0.004989189755635598
1.00325e-05	0.005000896403820811
1.00327e-05	0.005015577899885501
1.00330e-05	0.005030259395950291
1.00333e-05	0.00504494089201508
1.00335e-05	0.00505962238807987
1.00338e-05	0.00507430388414456
1.00340e-05	0.005088985380209349
1.00343e-05	0.005103666876274138
1.00345e-05	0.005118348372338828
1.00348e-05	0.005133029868403618
1.00350e-05	0.005147711364468407
1.00353e-05	0.0051790892760831065
1.00355e-05	0.005212920406796331
1.00358e-05	0.005246751537509555
1.00360e-05	0.00528058266822255
1.00363e-05	0.005314413798935775
1.00365e-05	0.0053482449296489995
1.00368e-05	0.0053820760603619944
1.00370e-05	0.005415907191075219
1.00373e-05	0.005449738321788443
1.00375e-05	0.005483569452501438
1.00378e-05	0.0055192050786904085
1.00380e-05	0.0055551058409950725
1.00382e-05	0.005591006603299493
1.00385e-05	0.005626907365604157
1.00388e-05	0.00566280812790882
1.00390e-05	0.00569870889021324
1.00393e-05	0.005734609652517904
1.00395e-05	0.005770510414822568
1.00397e-05	0.0058064111771269885
1.00400e-05	0.005842311939431652
1.00403e-05	0.005861076032459794
1.00405e-05	0.00587732221951921
1.00408e-05	0.005893568406578736
1.00410e-05	0.005909814593638263
1.00412e-05	0.005926060780697679
1.00415e-05	0.005942306967757205
1.00418e-05	0.005958553154816731
1.00420e-05	0.005974799341876257
1.00423e-05	0.005991045528935673
1.00425e-05	0.005994526894024556
1.00428e-05	0.005976449089562624
1.00430e-05	0.005958371285100815
1.00433e-05	0.005940293480638883
1.00435e-05	0.005922215676176952
1.00438e-05	0.005904137871715142
1.00440e-05	0.005886060067253211
1.00443e-05	0.005867982262791279
1.00445e-05	0.00584990445832947
1.00448e-05	0.005831826653867538
1.00450e-05	0.005789733532725141
1.00453e-05	0.005744111819869017
1.00455e-05	0.005698490107012584
1.00458e-05	0.005652868394156151
1.00460e-05	0.0056072466813000274
1.00463e-05	0.005561624968443595
1.00465e-05	0.005516003255587161
1.00467e-05	0.005470381542731038
1.00470e-05	0.005421156408965818
1.00473e-05	0.005365845270826766
1.00475e-05	0.005310534132688089
1.00478e-05	0.005255222994549037
1.00480e-05	0.005199911856409986
1.00482e-05	0.005144600718271309
1.00485e-05	0.005089289580132258
1.00488e-05	0.005033978441993206
1.00490e-05	0.004978667303854529
1.00493e-05	0.004935547386967926
1.00495e-05	0.004894218736999989
1.00497e-05	0.004852890087032332
1.00500e-05	0.004811561437064396
1.00503e-05	0.0047702327870964584
1.00505e-05	0.004728904137128522
1.00508e-05	0.004687575487160865
1.00510e-05	0.0046462468371929275
1.00513e-05	0.004604918187224991
1.00515e-05	0.004563589537257334
1.00518e-05	0.004548555202022811
1.00520e-05	0.004537384313703192
1.00523e-05	0.004526213425383649
1.00525e-05	0.004515042537064029
1.00528e-05	0.00450387164874441
1.00530e-05	0.004492700760424867
1.00533e-05	0.004481529872105248
1.00535e-05	0.004470358983785628
1.00538e-05	0.004459188095466085
1.00540e-05	0.004448017207146466
1.00543e-05	0.004459789700281013
1.00545e-05	0.004474933284740941
1.00548e-05	0.004490076869200972
1.00550e-05	0.004505220453661002
1.00552e-05	0.00452036403812093
1.00555e-05	0.00453550762258096
1.00558e-05	0.00455065120704099
1.00560e-05	0.004565794791500918
1.00563e-05	0.004580938375960949
1.00565e-05	0.004596081960420979
1.00567e-05	0.004621981020005619
1.00570e-05	0.004649460391061598
1.00573e-05	0.004676939762117578
1.00575e-05	0.004704419133173371
1.00578e-05	0.00473189850422935
1.00580e-05	0.00475937787528533
1.00582e-05	0.004786857246341122
1.00585e-05	0.004814336617397102
1.00588e-05	0.004841815988453081
1.00590e-05	0.004869295359509061
1.00593e-05	0.004892909657043437
1.00595e-05	0.0049159560559075095
1.00598e-05	0.004939002454771582
1.00600e-05	0.004962048853635499
1.00603e-05	0.004985095252499572
1.00605e-05	0.005008141651363645
1.00608e-05	0.0050311880502275615
1.00610e-05	0.005054234449091635
1.00613e-05	0.005077362994388341
1.00615e-05	0.005100630281053483
1.00618e-05	0.005123897567718781
1.00620e-05	0.005147164854384081
1.00623e-05	0.005170432141049223
1.00625e-05	0.005193699427714522
1.00628e-05	0.005216966714379822
1.00630e-05	0.0052402340010449635
1.00633e-05	0.005263501287710262
1.00635e-05	0.005297949801836065
1.00637e-05	0.00533404118360075
1.00640e-05	0.005370132565365681
1.00643e-05	0.005406223947130611
1.00645e-05	0.005442315328895297
1.00648e-05	0.005478406710660227
1.00650e-05	0.005514498092425157
1.00652e-05	0.005550589474189843
1.00655e-05	0.005586680855954773
1.00658e-05	0.005622772237719703
1.00660e-05	0.005658863619484389
1.00663e-05	0.005697464498763484
1.00665e-05	0.005740303798488933
1.00667e-05	0.005783143098214092
1.00670e-05	0.005825982397939542
1.00673e-05	0.0058688216976649915
1.00675e-05	0.005911660997390441
1.00678e-05	0.0059545002971156
1.00680e-05	0.00599733959684105
1.00683e-05	0.0060401788965665
1.00685e-05	0.006083018196291659
1.00688e-05	0.006125857496017109
1.00690e-05	0.006168696795742558
1.00693e-05	0.006201016457697749
1.00695e-05	0.006231790459971673
1.00698e-05	0.006262564462245596
1.00700e-05	0.006293338464519312
1.00703e-05	0.006324112466793236
1.00705e-05	0.006354886469067159
1.00708e-05	0.006385660471340875
1.00710e-05	0.006416434473614798
1.00713e-05	0.006447208475888722
1.00715e-05	0.006448507811491196
1.00718e-05	0.006445476408250962
1.00720e-05	0.006442445005010727
1.00722e-05	0.0064394136017705125
1.00725e-05	0.006436382198530277
1.00728e-05	0.006433350795290043
1.00730e-05	0.006430319392049829
1.00733e-05	0.0064272879888095935
1.00735e-05	0.006424256585569358
1.00737e-05	0.006396912538340257
1.00740e-05	0.006365996212826278
1.00743e-05	0.006338417016230924
1.00745e-05	0.006315943782593307
1.00748e-05	0.006293470548955538
1.00750e-05	0.005326730858223605
1.00752e-05	-0.00043198360274526336
1.00755e-05	-0.005525956987586912
1.00758e-05	-0.00523002930063513
1.00760e-05	-0.003244155768068705
1.00763e-05	0.0009637151983514472
1.00765e-05	0.005363326719525531
1.00768e-05	0.006368026375672498
1.00770e-05	0.0051669514203844975
1.00773e-05	0.002348181208446618
1.00775e-05	-0.0010547810487474031
1.00778e-05	-0.0017988457138281128
1.00780e-05	-8.68456698340678e-05
1.00783e-05	0.002246113692624844
1.00785e-05	0.004789597077007835
1.00788e-05	0.006164053183222263
1.00790e-05	0.005217552188656665
1.00793e-05	0.003978768821732813
1.00795e-05	0.0025163326690221454
1.00798e-05	0.001533505545047805
1.00800e-05	0.0019715721743518233
1.00803e-05	0.003144186945504812
1.00805e-05	0.00443486998843208
1.00808e-05	0.0052641550692947665
1.00810e-05	0.005107790133334326
1.00813e-05	0.004351426246530945
1.00815e-05	0.00336517844039158
1.00818e-05	0.00274983973522642
1.00820e-05	0.00302689037556211
1.00822e-05	0.003766176599237762
1.00825e-05	0.0045813521455403145
1.00828e-05	0.00510929544091803
1.00830e-05	0.00502150741387907
1.00833e-05	0.004559458981286019
1.00835e-05	0.003954871259880947
1.00837e-05	0.003583937798067809
1.00840e-05	0.003773141247326211
1.00843e-05	0.004252861925729325
1.00845e-05	0.004780946754083387
1.00848e-05	0.005129813763055645
1.00850e-05	0.00509359050865773
1.00853e-05	0.00482343658852872
1.00855e-05	0.004464392134740938
1.00858e-05	0.00425197911488199
1.00860e-05	0.004390560951209587
1.00863e-05	0.004711102912327663
1.00865e-05	0.005061790733409705
1.00868e-05	0.005299951900991631
1.00870e-05	0.005296525350870732
1.00873e-05	0.005146096770482147
1.00875e-05	0.004939411496087151
1.00878e-05	0.004823880611873298
1.00880e-05	0.004927386041041419
1.00883e-05	0.005143913298642585
1.00885e-05	0.005378243777889616
1.00888e-05	0.005540894325669301
1.00890e-05	0.005550915793089645
1.00893e-05	0.005467452439067484
1.00895e-05	0.005347237388303752
1.00898e-05	0.005282493094383323
1.00900e-05	0.005353200727694992
1.00903e-05	0.005492828779961862
1.00905e-05	0.00564161570349609
1.00907e-05	0.005743590129544991
1.00910e-05	0.005748647657746369
1.00913e-05	0.005694720696001826
1.00915e-05	0.005617887631457494
1.00918e-05	0.005576028904208689
1.00920e-05	0.00561922666801226
1.00922e-05	0.00570578735747346
1.00925e-05	0.005798261818244751
1.00928e-05	0.005861578931866708
1.00930e-05	0.005864344855654879
1.00933e-05	0.005830312700750266
1.00935e-05	0.005782072528324595
1.00938e-05	0.005755867853017284
1.00940e-05	0.00578305422485358
1.00943e-05	0.005837499214540736
1.00945e-05	0.00589573157427305
1.00948e-05	0.005935771017800958
1.00950e-05	0.00593794302045969
1.00953e-05	0.005917117569124121
1.00955e-05	0.005887434066847481
1.00958e-05	0.00587158306859221
1.00960e-05	0.005889192198714271
1.00963e-05	0.00592387768817254
1.00965e-05	0.005960923498766637
1.00968e-05	0.005986550128366696
1.00970e-05	0.005988423445807267
1.00973e-05	0.005975847413936593
1.00975e-05	0.005957668113560014
1.00978e-05	0.005948086461226173
1.00980e-05	0.005959383764446336
1.00983e-05	0.005981284113976852
1.00985e-05	0.00600455706253962
1.00988e-05	0.006020559412956542
1.00990e-05	0.0060215537763386425
1.00992e-05	0.006013357491218456
1.00995e-05	0.006001500352697767
1.00998e-05	0.005994865854572924
1.01000e-05	0.006001134129707122
1.01003e-05	0.006013855615557846
1.01005e-05	0.006024600939500764
1.01007e-05	0.006033147453937338
1.01010e-05	0.00603338412824017
1.01013e-05	0.006022392922751628
1.01015e-05	0.006008191495252111
1.01018e-05	0.00599399006775269
1.01020e-05	0.005983604591736235
1.01023e-05	0.005973729517582795
1.01025e-05	0.005960960308982729
1.01028e-05	0.005948191100382577
1.01030e-05	0.005927661433145992
1.01033e-05	0.005896015134569423
1.01035e-05	0.005860777458415843
1.01038e-05	0.005825539782262263
1.01040e-05	0.005790695532858738
1.01043e-05	0.005756221230775484
1.01045e-05	0.0057156873127734665
1.01048e-05	0.005669455412431971
1.01050e-05	0.005623223512090162
1.01053e-05	0.005576991611748353
1.01055e-05	0.005525978892419737
1.01058e-05	0.005470470669988793
1.01060e-05	0.005414962447557848
1.01063e-05	0.005359454225127279
1.01065e-05	0.005300734286863538
1.01068e-05	0.005238994305689069
1.01070e-05	0.005177254324515018
1.01073e-05	0.005115514343340549
1.01075e-05	0.005053774362166081
1.01077e-05	0.00499203438099203
1.01080e-05	0.00493029439981756
1.01083e-05	0.004868622384859193
1.01085e-05	0.004811301901830692
1.01088e-05	0.004753981418801803
1.01090e-05	0.004696660935772915
1.01092e-05	0.0046393404527444145
1.01095e-05	0.0045820199697155254
1.01098e-05	0.004524699486686637
1.01100e-05	0.004467379003657748
1.01103e-05	0.004424191703304285
1.01105e-05	0.004394294127313241
1.01108e-05	0.0043643965513221975
1.01110e-05	0.004334498975331356
1.01113e-05	0.0043046013993403125
1.01115e-05	0.0042747038233492685
1.01118e-05	0.004244806247358427
1.01120e-05	0.004214908671367383
1.01123e-05	0.004185011095376339
1.01125e-05	0.00417815442339005
1.01128e-05	0.0041929635906096056
1.01130e-05	0.004207772757829161
1.01133e-05	0.004222581925048615
1.01135e-05	0.004237391092268171
1.01138e-05	0.004252200259487726
1.01140e-05	0.00426700942670718
1.01143e-05	0.004281818593926736
1.01145e-05	0.004296627761146291
1.01148e-05	0.00432977617205075
1.01150e-05	0.004380169353593305
1.01153e-05	0.004430562535135861
1.01155e-05	0.004480955716678075
1.01158e-05	0.004531348898220631
1.01160e-05	0.004581742079763186
1.01162e-05	0.0046321352613054
1.01165e-05	0.004682779522830788
1.01168e-05	0.004749499161635383
1.01170e-05	0.004816218800439525
1.01173e-05	0.00488293843924412
1.01175e-05	0.004949658078048715
1.01177e-05	0.005016377716852857
1.01180e-05	0.005083097355657452
1.01183e-05	0.005149816994462047
1.01185e-05	0.005213137660682192
1.01188e-05	0.005273262202588581
1.01190e-05	0.005333386744495379
1.01193e-05	0.005393511286402176
1.01195e-05	0.005453635828308566
1.01198e-05	0.005513760370215364
1.01200e-05	0.005573884912122161
1.01203e-05	0.0056340094540285515
1.01205e-05	0.005693617508031295
1.01208e-05	0.005720157462223793
1.01210e-05	0.005746697416416112
1.01213e-05	0.005773237370608609
1.01215e-05	0.005799777324801108
1.01218e-05	0.005826317278993427
1.01220e-05	0.005852857233185924
1.01223e-05	0.005879397187378422
1.01225e-05	0.005905937141570741
1.01228e-05	0.005909341526714678
1.01230e-05	0.0058909910571453
1.01233e-05	0.005872640587576044
1.01235e-05	0.005854290118006666
1.01238e-05	0.0058359396484372866
1.01240e-05	0.005817589178868032
1.01243e-05	0.005799238709298653
1.01245e-05	0.005780888239729274
1.01247e-05	0.00576253777016002
1.01250e-05	0.0057260931633199225
1.01253e-05	0.005672634264474196
1.01255e-05	0.005619175365628832
1.01258e-05	0.005565716466783105
1.01260e-05	0.005512257567937379
1.01262e-05	0.005458798669092014
1.01265e-05	0.005405339770246287
1.01268e-05	0.005351880871400561
1.01270e-05	0.005298421972554835
1.01273e-05	0.0052385557001714475
1.01275e-05	0.005172664441752887
1.01278e-05	0.005106773183334327
1.01280e-05	0.005040881924916214
1.01283e-05	0.004974990666497653
1.01285e-05	0.004909099408079094
1.01288e-05	0.0048432081496609805
1.01290e-05	0.004777490891094219
1.01293e-05	0.004722913960193804
1.01295e-05	0.00466833702929376
1.01298e-05	0.004613760098393344
1.01300e-05	0.00455918316749293
1.01303e-05	0.0045046062365928854
1.01305e-05	0.00445002930569247
1.01308e-05	0.004395452374792055
1.01310e-05	0.004352681343877868
1.01313e-05	0.004321011645222262
1.01315e-05	0.004289341946566657
1.01318e-05	0.004257672247911266
1.01320e-05	0.0042260025492556605
1.01323e-05	0.004194332850600055
1.01325e-05	0.004162663151944665
1.01328e-05	0.004130993453289059
1.01330e-05	0.004099323754633454
1.01332e-05	0.004067654055978064
1.01335e-05	0.004035984357322458
1.01338e-05	0.004004314658666853
1.01340e-05	0.003972884430135465
1.01343e-05	0.003956786258662915
1.01345e-05	0.003940688087190366
1.01347e-05	0.003924589915717926
1.01350e-05	0.003908491744245376
1.01353e-05	0.003892393572772827
1.01355e-05	0.0038762954013002774
1.01358e-05	0.003860197229827837
1.01360e-05	0.0038440990583552877
1.01363e-05	0.003828000886882738
1.01365e-05	0.003811902715410298
1.01368e-05	0.0037958045439377484
1.01370e-05	0.003779706372465199
1.01373e-05	0.0037684598519921618
1.01375e-05	0.0037617754394332847
1.01378e-05	0.0037550910268744075
1.01380e-05	0.0037484066143155755
1.01383e-05	0.003741722201756698
1.01385e-05	0.003735037789197821
1.01388e-05	0.003728353376638989
1.01390e-05	0.0037216689640801118
1.01393e-05	0.0037149845515212342
1.01395e-05	0.0037083001389624022
1.01398e-05	0.003701615726403525
1.01400e-05	0.003694931313844648
1.01403e-05	0.003688246901285816
1.01405e-05	0.0036815624887269385
1.01408e-05	0.0036748780761680614
1.01410e-05	0.0036681936636092293
1.01413e-05	0.0036615092510503522
1.01415e-05	0.0036548248384914747
1.01417e-05	0.0036481404259326427
1.01420e-05	0.0036414560133737656
1.01423e-05	0.0036347716008148885
1.01425e-05	0.0036280871882560565
1.01428e-05	0.003621402775697179
1.01430e-05	0.003614718363138302
1.01432e-05	0.0036112080536773988
1.01435e-05	0.0036106824190967964
1.01438e-05	0.003610156784516194
1.01440e-05	0.0036096311499355916
1.01443e-05	0.0036091055153549927
1.01445e-05	0.0036085798807743903
1.01448e-05	0.003608054246193788
1.01450e-05	0.003607528611613189
1.01453e-05	0.0036070029770325866
1.01455e-05	0.003606477342451984
1.01458e-05	0.0036059517078713857
1.01460e-05	0.0036054260732907833
1.01463e-05	0.003604900438710181
1.01465e-05	0.003604374804129582
1.01468e-05	0.0036038491695489796
1.01470e-05	0.003603323534968377
1.01473e-05	0.0036027979003877783
1.01475e-05	0.003602272265807176
1.01478e-05	0.0036017466312265735
1.01480e-05	0.0036012209966459745
1.01483e-05	0.003600695362065372
1.01485e-05	0.0036001697274847698
1.01488e-05	0.003599644092904171
1.01490e-05	0.0035991184583235684
1.01493e-05	0.003598994538674932
1.01495e-05	0.0035992483598966123
1.01498e-05	0.003599502181118294
1.01500e-05	0.0035997560023399763
1.01502e-05	0.0036000098235616563
1.01505e-05	0.0036002636447833385
1.01508e-05	0.00360066903711354
