Time(s)	Current(A)
1.00000e-06	0.004632679934196984
1.00025e-06	0.004637531233980442
1.00050e-06	0.0046423825337639
1.00075e-06	0.004647233833547361
1.00100e-06	0.004652085133330819
1.00125e-06	0.004656936433114281
1.00150e-06	0.004661787732897739
1.00175e-06	0.004667876710598819
1.00200e-06	0.0046752429706826484
1.00225e-06	0.004682609230766471
1.00250e-06	0.0046899754908502995
1.00275e-06	0.004697341750934122
1.00300e-06	0.0047047080110179445
1.00325e-06	0.004712074271101773
1.00350e-06	0.004724813743646245
1.00375e-06	0.00473759585942206
1.00400e-06	0.004750377975197864
1.00425e-06	0.00476316009097368
1.00450e-06	0.004775942206749485
1.00475e-06	0.004788724322525289
1.00500e-06	0.004804919463441079
1.00525e-06	0.004824636842914229
1.00550e-06	0.004844354222387395
1.00575e-06	0.004864071601860545
1.00600e-06	0.004883788981333695
1.00625e-06	0.004903506360806861
1.00650e-06	0.004923223740280011
1.00675e-06	0.004942941119753177
1.00700e-06	0.004965262090212673
1.00725e-06	0.004990269963986248
1.00750e-06	0.0050152778377598435
1.00775e-06	0.005040285711533418
1.00800e-06	0.005065293585307015
1.00825e-06	0.00509030145908059
1.00850e-06	0.0051153093328541645
1.00875e-06	0.00514031720662776
1.00900e-06	0.005166028454917482
1.00925e-06	0.005192465585009845
1.00950e-06	0.005209882537287229
1.00975e-06	0.002918039627687465
1.01000e-06	-0.0029333254118523453
1.01025e-06	-0.005276678321254416
1.01050e-06	-0.004161542426194417
1.01075e-06	-0.0016137505925075705
1.01100e-06	0.002334725324755366
1.01125e-06	0.004939560918568683
1.01150e-06	0.0051600904585815885
1.01175e-06	0.0035627115512601414
1.01200e-06	0.0008868665895868787
1.01225e-06	-0.000877829745810869
1.01250e-06	-0.0006145536418195649
1.01275e-06	0.0011133131648884966
1.01300e-06	0.0034526232551348656
1.01325e-06	0.005214889068075776
1.01350e-06	0.005535299116672068
1.01375e-06	0.004488936292769284
1.01400e-06	0.0026925280565709836
1.01425e-06	0.0020100020913796854
1.01450e-06	0.0021174373417472544
1.01475e-06	0.00329637143793055
1.01500e-06	0.004765965803331782
1.01525e-06	0.005808318046250951
1.01550e-06	0.0060463208537662625
1.01575e-06	0.005400985505236994
1.01600e-06	0.004423242507864586
1.01625e-06	0.0037437302662717852
1.01650e-06	0.003764474164467309
1.01675e-06	0.004498632700054544
1.01700e-06	0.005419144769729435
1.01725e-06	0.006071851468107367
1.01750e-06	0.0062205905806287844
1.01775e-06	0.005815953128311396
1.01800e-06	0.005203096325667225
1.01825e-06	0.004777071240403811
1.01850e-06	0.004789695804492532
1.01875e-06	0.005249189847551954
1.01900e-06	0.005825394042891246
1.01925e-06	0.006233842636694396
1.01950e-06	0.0063266420418542435
1.01975e-06	0.006072888147476295
1.02000e-06	0.005688823396972712
1.02025e-06	0.005421922476646041
1.02050e-06	0.00542992047729881
1.02075e-06	0.005717954801018924
1.02100e-06	0.006079211138446231
1.02125e-06	0.0063355153800108924
1.02150e-06	0.006394254424256139
1.02175e-06	0.00623610164011118
1.02200e-06	0.005996515805563063
1.02225e-06	0.005830316952774361
1.02250e-06	0.005835727230577713
1.02275e-06	0.006015318384049214
1.02300e-06	0.006239295420500204
1.02325e-06	0.006396096935243911
1.02350e-06	0.006427802547800128
1.02375e-06	0.006322401564437285
1.02400e-06	0.00616483685951619
1.02425e-06	0.006052171684167549
1.02450e-06	0.006046008216639259
1.02475e-06	0.006148031090866289
1.02500e-06	0.006277013666694244
1.02525e-06	0.006363157847937442
1.02550e-06	0.006370271287752907
1.02575e-06	0.0062909209083145375
1.02600e-06	0.006178403370234061
1.02625e-06	0.00609360214215556
1.02650e-06	0.00607518377748423
1.02675e-06	0.006124279877909863
1.02700e-06	0.006190089427761294
1.02725e-06	0.006228974613103417
1.02750e-06	0.0062183506758036605
1.02775e-06	0.006153649473358116
1.02800e-06	0.006068342432079574
1.02825e-06	0.006000649636661353
1.02850e-06	0.005974871610465476
1.02875e-06	0.005991796654218233
1.02900e-06	0.0060196834563744075
1.02925e-06	0.006031280258632566
1.02950e-06	0.006012525120475916
1.02975e-06	0.0059606422821455625
1.03000e-06	0.005896682896621691
1.03025e-06	0.005844670928248392
1.03050e-06	0.00581990982084739
1.03075e-06	0.005822973364829631
1.03100e-06	0.005834060018897344
1.03125e-06	0.005836182049557498
1.03150e-06	0.005820615357751922
1.03175e-06	0.0057857055558475645
1.03200e-06	0.005744713473865479
1.03225e-06	0.0057126659332597815
1.03250e-06	0.00569892284525457
1.03275e-06	0.005703534460312233
1.03300e-06	0.005713923614562134
1.03325e-06	0.0057193926843246016
1.03350e-06	0.005712980629535378
1.03375e-06	0.0056956706025022875
1.03400e-06	0.005678292164030433
1.03425e-06	0.005664742804099313
1.03450e-06	0.005664597686128345
1.03475e-06	0.0056758075502977125
1.03500e-06	0.005687914864525594
1.03525e-06	0.005699601821847196
1.03550e-06	0.005704231892600916
1.03575e-06	0.005702308012992404
1.03600e-06	0.005700481979744333
1.03625e-06	0.00570135051163434
1.03650e-06	0.00571080875399732
1.03675e-06	0.00572750317680859
1.03700e-06	0.005744806281394761
1.03725e-06	0.005761930113569637
1.03750e-06	0.005774634186145976
1.03775e-06	0.005783208174598537
1.03800e-06	0.005791797015534506
1.03825e-06	0.005801948498385366
1.03850e-06	0.005817289641686348
1.03875e-06	0.0058369903737684765
1.03900e-06	0.005856931986127115
1.03925e-06	0.005876424394000565
1.03950e-06	0.00589276487059174
1.03975e-06	0.005906197336085419
1.04000e-06	0.005919799659980348
1.04025e-06	0.005933671476898613
1.04050e-06	0.005949362858057922
1.04075e-06	0.005967941113607011
1.04100e-06	0.005985963706246217
1.04125e-06	0.006003104698232015
1.04150e-06	0.006018328999736728
1.04175e-06	0.006030512328827204
1.04200e-06	0.006042429963492133
1.04225e-06	0.006053926054132758
1.04250e-06	0.006065422144773382
1.04275e-06	0.006077332364658686
1.04300e-06	0.0060882287721037405
1.04325e-06	0.0060964742365181065
1.04350e-06	0.006104719700932465
1.04375e-06	0.006112965165346823
1.04400e-06	0.0061197726778992115
1.04425e-06	0.00612429877256576
1.04450e-06	0.006128824867232313
1.04475e-06	0.006133350961898861
1.04500e-06	0.006135662707446062
1.04525e-06	0.006137691261059657
1.04550e-06	0.006139719814673252
1.04575e-06	0.006140309516274353
1.04600e-06	0.006138616371833702
1.04625e-06	0.006136691708681855
1.04650e-06	0.006134399723825726
1.04675e-06	0.006132107738969598
1.04700e-06	0.006128848392365289
1.04725e-06	0.006124054254192025
1.04750e-06	0.0061192601160187585
1.04775e-06	0.006114465977845496
1.04800e-06	0.006109671839672233
1.04825e-06	0.006103536729797021
1.04850e-06	0.006097230123762584
1.04875e-06	0.006090923517728141
1.04900e-06	0.006084616911693704
1.04925e-06	0.0060781907841361464
1.04950e-06	0.006071575026767069
1.04975e-06	0.006064959269397991
1.05000e-06	0.006058343512028908
1.05025e-06	0.00605172775465983
1.05050e-06	0.006045111997290747
1.05075e-06	0.006038496239921669
1.05100e-06	0.006034282696922037
1.05125e-06	0.006030376371843106
1.05150e-06	0.006026470046764178
1.05175e-06	0.006022563721685247
1.05200e-06	0.006018657396606319
1.05225e-06	0.006014751071527391
1.05250e-06	0.006013633883576737
1.05275e-06	0.006016941869721574
1.05300e-06	0.0060202498558664125
1.05325e-06	0.0060235578420112495
1.05350e-06	0.006026865828156088
1.05375e-06	0.006030173814300924
1.05400e-06	0.006033481800445761
1.05425e-06	0.006044845271392099
1.05450e-06	0.00605723895401409
1.05475e-06	0.006069632636636093
1.05500e-06	0.006082026319258084
1.05525e-06	0.006094420001880076
1.05550e-06	0.006106813684502078
1.05575e-06	0.006122599992851301
1.05600e-06	0.0061437689549723295
1.05625e-06	0.00616493791709334
1.05650e-06	0.006186106879214352
1.05675e-06	0.006207275841335381
1.05700e-06	0.006228444803456391
1.05725e-06	0.00624961376557742
1.05750e-06	0.006270782727698432
1.05775e-06	0.0062969564978747825
1.05800e-06	0.006323770330296879
1.05825e-06	0.006350584162718975
1.05850e-06	0.006377397995141094
1.05875e-06	0.00640421182756319
1.05900e-06	0.0064310256599853085
1.05925e-06	0.006457839492407404
1.05950e-06	0.0064849374243325045
1.05975e-06	0.006512486101310083
1.06000e-06	0.0065400347782876385
1.06025e-06	0.006567142801585489
1.06050e-06	0.006593551694952143
1.06075e-06	0.006619960588318798
1.06100e-06	0.006645678046073622
1.06125e-06	0.006670298489656157
1.06150e-06	0.0066940933151908135
1.06175e-06	0.006716578236109755
1.06200e-06	0.006737992608027005
1.06225e-06	0.0067577084741009714
1.06250e-06	0.006775514370817504
1.06275e-06	0.00679028995868422
1.06300e-06	0.006805065546550924
1.06325e-06	0.006816250684983725
1.06350e-06	0.006821739307578689
1.06375e-06	0.006827227930173653
1.06400e-06	0.006832716552768622
1.06425e-06	0.006838205175363586
1.06450e-06	0.006843693797958554
1.06475e-06	0.006838301062740277
1.06500e-06	0.006831516716446958
1.06525e-06	0.0068247323701536335
1.06550e-06	0.006817948023860315
1.06575e-06	0.00681116367756699
1.06600e-06	0.006799697793585542
1.06625e-06	0.00678080430086699
1.06650e-06	0.006761910808148453
1.06675e-06	0.006743017315429916
1.06700e-06	0.006724123822711364
1.06725e-06	0.006705230329992827
1.06750e-06	0.006686336837274274
1.06775e-06	0.0066674433445557384
1.06800e-06	0.0066417307134728635
1.06825e-06	0.0066151459864040975
1.06850e-06	0.006588561259335354
1.06875e-06	0.006561976532266588
1.06900e-06	0.006535391805197844
1.06925e-06	0.0065088070781291005
1.06950e-06	0.006482222351060335
1.06975e-06	0.006455545136527174
1.07000e-06	0.006428721183733076
1.07025e-06	0.006401897230939001
1.07050e-06	0.006375996952588404
1.07075e-06	0.006351562152639076
1.07100e-06	0.006327127352689747
1.07125e-06	0.006304330466608704
1.07150e-06	0.006284132253051302
1.07175e-06	0.006263934039493883
1.07200e-06	0.006246124345310205
1.07225e-06	0.006232104215271944
1.07250e-06	0.00621808408523367
1.07275e-06	0.00620817508987273
1.07300e-06	0.006204788716325737
1.07325e-06	0.0062014023427787454
1.07350e-06	0.006198015969231755
1.07375e-06	0.006194629595684761
1.07400e-06	0.006191243222137771
1.07425e-06	0.006200635038801064
1.07450e-06	0.006211661051427625
1.07475e-06	0.006222687064054194
1.07500e-06	0.006233713076680755
1.07525e-06	0.006244739089307315
1.07550e-06	0.0062597934227643145
1.07575e-06	0.006281238987689985
1.07600e-06	0.006302684552615674
1.07625e-06	0.006326223147507628
1.07650e-06	0.006353082490559539
1.07675e-06	0.006381404218130323
1.07700e-06	0.006412046127819034
1.07725e-06	0.006443920433571272
1.07750e-06	0.006477750027602249
1.07775e-06	0.006512580318955403
1.07800e-06	0.00654899829125191
1.07825e-06	0.006586178601015468
1.07850e-06	0.006624568416033082
1.07875e-06	0.00666336068834377
1.07900e-06	0.006702960537434976
1.07925e-06	0.00674292166977187
1.07950e-06	0.006783048476441751
1.07975e-06	0.0068231464166276425
1.08000e-06	0.0068630203782500945
1.08025e-06	0.0069024743490792816
1.08050e-06	0.006941306928067074
1.08075e-06	0.006979306109556917
1.08100e-06	0.0070156759762567324
1.08125e-06	0.007050402511537278
1.08150e-06	0.0070851290468178525
1.08175e-06	0.007118532420858433
1.08200e-06	0.007149081814709941
1.08225e-06	0.0071780109519231396
1.08250e-06	0.007206494539169878
1.08275e-06	0.007235891669615699
1.08300e-06	0.007266681934621293
1.08325e-06	0.007298850471428442
1.08350e-06	0.0073319191749159855
1.08375e-06	0.00736542778195784
1.08400e-06	0.007399634328800922
1.08425e-06	0.007434552534637347
1.08450e-06	0.007470599840549157
1.08475e-06	0.007508526540706194
1.08500e-06	0.007549435040016608
1.08525e-06	0.007590343539327056
1.08550e-06	0.00763268681854072
1.08575e-06	0.007677306483090585
1.08600e-06	0.007722681103873332
1.08625e-06	0.007769253519031485
1.08650e-06	0.007816918266833828
1.08675e-06	0.00786631608185272
1.08700e-06	0.007916571020187488
1.08725e-06	0.0079686128799973
1.08750e-06	0.008021645869416321
1.08775e-06	0.008075376981893792
1.08800e-06	0.008129526024188134
1.08825e-06	0.00818392152090916
1.08850e-06	0.00823861288297929
1.08875e-06	0.008293695985797744
1.08900e-06	0.008349049931810406
1.08925e-06	0.00840439453161519
1.08950e-06	0.00845942725423343
1.08975e-06	0.00851384620229282
1.09000e-06	0.008567356766139227
1.09025e-06	0.008619734787069441
1.09050e-06	0.008670893111317335
1.09075e-06	0.00872077303506511
1.09100e-06	0.00876918139798847
1.09125e-06	0.008815823791470225
1.09150e-06	0.008860393450323047
1.09175e-06	0.008902583038097352
1.09200e-06	0.008942080177500691
1.09225e-06	0.008978536768931613
1.09250e-06	0.009011564686248513
1.09275e-06	0.009040102113500308
1.09300e-06	0.009065079719290228
1.09325e-06	0.009085474298772286
1.09350e-06	0.009098597565171193
1.09375e-06	0.009111720831570112
1.09400e-06	0.009124844097969018
1.09425e-06	0.009131672341804639
1.09450e-06	0.0091285130628009
1.09475e-06	0.00912535378379716
1.09500e-06	0.009122194504793417
1.09525e-06	0.00911376475453713
1.09550e-06	0.0090969730085168
1.09575e-06	0.009080181262496483
1.09600e-06	0.009059408930899777
1.09625e-06	0.009032321103376205
1.09650e-06	0.009005233275852655
1.09675e-06	0.008974708193600665
1.09700e-06	0.008938729650338978
1.09725e-06	0.00890275110707726
1.09750e-06	0.00886417640972393
1.09775e-06	0.008821482720258407
1.09800e-06	0.008778789030792848
1.09825e-06	0.008734571926603766
1.09850e-06	0.008687937811325007
1.09875e-06	0.008640557291243179
1.09900e-06	0.00859199254426728
1.09925e-06	0.00854317161445612
1.09950e-06	0.008493944231468382
1.09975e-06	0.00844496132935919
1.10000e-06	0.008396366314399616
1.10025e-06	0.008348505642226315
1.10050e-06	0.008301810059657631
1.10075e-06	0.008256358125033966
1.10100e-06	0.008212879330638006
1.10125e-06	0.008171773813067417
1.10150e-06	0.008134433676201612
1.10175e-06	0.008097093539335836
1.10200e-06	0.008062166045877717
1.10225e-06	0.008032041074116078
1.10250e-06	0.008003792684798595
1.10275e-06	0.007976068143074843
1.10300e-06	0.007948607165420523
1.10325e-06	0.007921564351821413
1.10350e-06	0.00789452153822228
1.10375e-06	0.00786835475109977
1.10400e-06	0.00784357784532468
1.10425e-06	0.00781931438540067
1.10450e-06	0.007795865545617002
1.10475e-06	0.007771969871120011
1.10500e-06	0.007747365260021245
1.10525e-06	0.007722760648922458
1.10550e-06	0.007698181917150862
1.10575e-06	0.007673644244862126
1.10600e-06	0.00764910657257341
1.10625e-06	0.007624568900284694
1.10650e-06	0.007599847507276808
1.10675e-06	0.007574834627644395
1.10700e-06	0.0075498217480119605
1.10725e-06	0.007524808868379547
1.10750e-06	0.007499815999092978
1.10775e-06	0.007474854877712627
1.10800e-06	0.007449893756332298
1.10825e-06	0.007424932634951947
1.10850e-06	0.007399971513571618
1.10875e-06	0.007375523153927971
1.10900e-06	0.007351888329026132
1.10925e-06	0.0073282535041243125
1.10950e-06	0.007304618679222473
1.10975e-06	0.007280983854320654
1.11000e-06	0.007258454606277567
1.11025e-06	0.007237679438385191
1.11050e-06	0.0072169042704928145
1.11075e-06	0.007197199021496961
1.11100e-06	0.007179191278635054
1.11125e-06	0.007161183535773132
1.11150e-06	0.007144442634734405
1.11175e-06	0.007129711672741068
1.11200e-06	0.007116444805552726
1.11225e-06	0.007105500833978419
1.11250e-06	0.007097026065268919
1.11275e-06	0.007092468871080682
1.11300e-06	0.007090799809804756
1.11325e-06	0.007093712986818155
1.11350e-06	0.007100115507269703
1.11375e-06	0.00711205413135371
1.11400e-06	0.0071239927554377054
1.11425e-06	0.007140361860323424
1.11450e-06	0.007163760253467634
1.11475e-06	0.007187158646611845
1.11500e-06	0.007215181532997786
1.11525e-06	0.007250541522849499
1.11550e-06	0.007285901512701242
1.11575e-06	0.007324001740736453
1.11600e-06	0.007367685107632735
1.11625e-06	0.0074145461249035425
1.11650e-06	0.007464577727441435
1.11675e-06	0.007517770009184705
1.11700e-06	0.007573940440507021
1.11725e-06	0.007632789478432109
1.11750e-06	0.007694002050298616
1.11775e-06	0.00775726354910632
1.11800e-06	0.007822264694329253
1.11825e-06	0.007888739669044523
1.11850e-06	0.007956505390097958
1.11875e-06	0.008025377734924996
1.11900e-06	0.008095063268244699
1.11925e-06	0.008165196949782228
1.11950e-06	0.00823540309647969
1.11975e-06	0.008305305093956852
1.12000e-06	0.008374530437353532
1.12025e-06	0.008442736011892991
1.12050e-06	0.008509628312271457
1.12075e-06	0.008574913130908501
1.12100e-06	0.00863822954088897
1.12125e-06	0.008699168965148794
1.12150e-06	0.008757318107667065
1.12175e-06	0.008812263610078735
1.12200e-06	0.00886360318937104
1.12225e-06	0.008911032229199978
1.12250e-06	0.008954480840845174
1.12275e-06	0.008993261577213633
1.12300e-06	0.009028453929001945
1.12325e-06	0.009059248479738337
1.12350e-06	0.009083065591077247
1.12375e-06	0.00910688270241614
1.12400e-06	0.00913069981375505
1.12425e-06	0.009141305145310395
1.12450e-06	0.00915022082936327
1.12475e-06	0.009159136513416152
1.12500e-06	0.009163123641957621
1.12525e-06	0.009159291249563075
1.12550e-06	0.009155458857168532
1.12575e-06	0.009147416160786933
1.12600e-06	0.009132693503086542
1.12625e-06	0.009117970845386162
1.12650e-06	0.009100163671936971
1.12675e-06	0.009077462684180719
1.12700e-06	0.009052713493953217
1.12725e-06	0.00902471467773124
1.12750e-06	0.008994971009760024
1.12775e-06	0.008962459004341457
1.12800e-06	0.008928518460062988
1.12825e-06	0.00889231143232963
1.12850e-06	0.008855107217860932
1.12875e-06	0.008816320892257208
1.12900e-06	0.00877698943550438
1.12925e-06	0.008736793087522688
1.12950e-06	0.00869646873813839
1.12975e-06	0.008655941304981422
1.13000e-06	0.00861571056143267
1.13025e-06	0.008575950538077153
1.13050e-06	0.008536983907381501
1.13075e-06	0.00849927605331915
1.13100e-06	0.008462871977256042
1.13125e-06	0.008428536442236406
1.13150e-06	0.008395991846672163
1.13175e-06	0.008366288710138664
1.13200e-06	0.008338868715359637
1.13225e-06	0.008315071095271775
1.13250e-06	0.008294704788919386
1.13275e-06	0.00827978251774718
1.13300e-06	0.008264860246574975
1.13325e-06	0.008255066912990784
1.13350e-06	0.008253411021453117
1.13375e-06	0.00825175512991545
1.13400e-06	0.008250099238377783
1.13425e-06	0.008254485517125947
1.13450e-06	0.008268458149712915
1.13475e-06	0.008282430782299871
1.13500e-06	0.00829640341488684
1.13525e-06	0.008314715853114425
1.13550e-06	0.008339913716693221
1.13575e-06	0.008367113515007123
1.13600e-06	0.008398760184561233
1.13625e-06	0.00843364740377506
1.13650e-06	0.008471646241733482
1.13675e-06	0.008512592180066067
1.13700e-06	0.008556276107602354
1.13725e-06	0.008602469279049226
1.13750e-06	0.008650941720074924
1.13775e-06	0.008701461680216321
1.13800e-06	0.008753799122797579
1.13825e-06	0.008807725091323285
1.13850e-06	0.008863005862001604
1.13875e-06	0.008919386266451708
1.13900e-06	0.008976583705533623
1.13925e-06	0.009034300876143979
1.13950e-06	0.009092240897583542
1.13975e-06	0.0091501071868693
1.14000e-06	0.009207603645766702
1.14025e-06	0.009264433120030221
1.14050e-06	0.009320297351064126
1.14075e-06	0.009374883875061933
1.14100e-06	0.009427862979662539
1.14125e-06	0.009478896805973434
1.14150e-06	0.009527647072697914
1.14175e-06	0.009573775560883391
1.14200e-06	0.009616974383148224
1.14225e-06	0.009657216212872143
1.14250e-06	0.00969505314476898
1.14275e-06	0.009731209809012275
1.14300e-06	0.009765926368683085
1.14325e-06	0.009798699748976888
1.14350e-06	0.009829853886081664
1.14375e-06	0.009859411336211057
1.14400e-06	0.009886435523358675
1.14425e-06	0.009911991565023842
1.14450e-06	0.009935218284373465
1.14475e-06	0.009957527930383103
1.14500e-06	0.00997838257113518
1.14525e-06	0.009998005625958931
1.14550e-06	0.010015674677844536
1.14575e-06	0.010033343729730141
1.14600e-06	0.010049628170100643
1.14625e-06	0.010063715821025564
1.14650e-06	0.010077032403023276
1.14675e-06	0.010089125626654658
1.14700e-06	0.010100476166104913
1.14725e-06	0.010110648381705731
1.14750e-06	0.01012082059730654
1.14775e-06	0.010130012008911204
1.14800e-06	0.01013764730181876
1.14825e-06	0.010145282594726317
1.14850e-06	0.010152277220510595
1.14875e-06	0.010158255380117052
1.14900e-06	0.010164233539723514
1.14925e-06	0.010169816953326133
1.14950e-06	0.010174774072949958
1.14975e-06	0.010179731192573777
1.15000e-06	0.010184353936287992
1.15025e-06	0.010188446167680856
1.15050e-06	0.010192538399073716
1.15075e-06	0.01019664863347679
1.15100e-06	0.01020078743099838
