Time(s)	Current(A)
9.25000e-06	0.011804341844246122
9.25025e-06	0.011803007936322215
9.25050e-06	0.0118016740283983
9.25075e-06	0.011800340120474383
9.25100e-06	0.011799006212550476
9.25125e-06	0.01179767230462656
9.25150e-06	0.011796338396702645
9.25175e-06	0.011795004488778738
9.25200e-06	0.011793670580854822
9.25225e-06	0.011789560590943984
9.25250e-06	0.011779126199868987
9.25275e-06	0.011768691808793922
9.25300e-06	0.011758257417718855
9.25325e-06	0.011747823026643858
9.25350e-06	0.011737388635568793
9.25375e-06	0.011726954244493727
9.25400e-06	0.01171651985341873
9.25425e-06	0.011706085462343665
9.25450e-06	0.011695651071268598
9.25475e-06	0.011685216680193601
9.25500e-06	0.011674782289118536
9.25525e-06	0.01166434789804347
9.25550e-06	0.011653913506968473
9.25575e-06	0.011643479115893408
9.25600e-06	0.011633044724818341
9.25625e-06	0.011622610333743275
9.25650e-06	0.011612175942668279
9.25675e-06	0.011601741551593213
9.25700e-06	0.011593392543506383
9.25725e-06	0.011589794403247866
9.25750e-06	0.011586196262989326
9.25775e-06	0.011582598122730785
9.25800e-06	0.01157899998247227
9.25825e-06	0.011575401842213728
9.25850e-06	0.011571803701955189
9.25875e-06	0.011568205561696672
9.25900e-06	0.01156460742143813
9.25925e-06	0.01156100928117959
9.25950e-06	0.011557411140921073
9.25975e-06	0.011553813000662534
9.26000e-06	0.011550214860403992
9.26025e-06	0.011546616720145477
9.26050e-06	0.011543018579886936
9.26075e-06	0.011539420439628394
9.26100e-06	0.011535822299369879
9.26125e-06	0.011532224159111338
9.26150e-06	0.011528626018852798
9.26175e-06	0.011528616794202183
9.26200e-06	0.011536783748123502
9.26225e-06	0.01154495070204482
9.26250e-06	0.011553117655966083
9.26275e-06	0.0115612846098874
9.26300e-06	0.01156945156380872
9.26325e-06	0.011577618517729982
9.26350e-06	0.011585785471651299
9.26375e-06	0.011593952425572618
9.26400e-06	0.01160211937949388
9.26425e-06	0.0116102863334152
9.26450e-06	0.011618453287336516
9.26475e-06	0.011626620241257836
9.26500e-06	0.011635755464137185
9.26525e-06	0.011645125165284265
9.26550e-06	0.011654494866431345
9.26575e-06	0.01166386456757836
9.26600e-06	0.011673234268725439
9.26625e-06	0.011682603969872519
9.26650e-06	0.011691973671019535
9.26675e-06	0.011701343372166615
9.26700e-06	0.011710713073313695
9.26725e-06	0.01172008277446071
9.26750e-06	0.011729452475607789
9.26775e-06	0.011738822176754869
9.26800e-06	0.011744176022909917
9.26825e-06	0.011740381047769395
9.26850e-06	0.011736586072628874
9.26875e-06	0.011732791097488378
9.26900e-06	0.011728996122347856
9.26925e-06	0.011725201147207334
9.26950e-06	0.011721406172066838
9.26975e-06	0.011717611196926317
9.27000e-06	0.011713816221785796
9.27025e-06	0.011691694663198473
9.27050e-06	0.011665135096448185
9.27075e-06	0.011638575529697897
9.27100e-06	0.011612015962947789
9.27125e-06	0.0115854563961975
9.27150e-06	0.011558896829447211
9.27175e-06	0.011532337262697104
9.27200e-06	0.011505777695946816
9.27225e-06	0.011472903679979213
9.27250e-06	0.011425644242330387
9.27275e-06	0.01137838480468124
9.27300e-06	0.011331125367032095
9.27325e-06	0.011283865929382948
9.27350e-06	0.011236606491734122
9.27375e-06	0.011189347054084975
9.27400e-06	0.01114208761643583
9.27425e-06	0.011094828178787004
9.27450e-06	0.011047568741137857
9.27475e-06	0.01100030930348871
9.27500e-06	0.010953049865839884
9.27525e-06	0.010906171045053672
9.27550e-06	0.010859384395334144
9.27575e-06	0.010812597745614933
9.27600e-06	0.010765811095895405
9.27625e-06	0.010719024446175875
9.27650e-06	0.010672237796456664
9.27675e-06	0.010625451146737136
9.27700e-06	0.010578664497017607
9.27725e-06	0.010531877847298395
9.27750e-06	0.010485091197578867
9.27775e-06	0.010438304547859338
9.27800e-06	0.010399968074804138
9.27825e-06	0.0103808825847628
9.27850e-06	0.010361797094721462
9.27875e-06	0.010342711604680253
9.27900e-06	0.010323626114638915
9.27925e-06	0.010304540624597578
9.27950e-06	0.01028545513455637
9.27975e-06	0.010266369644515033
9.28000e-06	0.010247284154473695
9.28025e-06	0.010237998020478575
9.28050e-06	0.010251036536523213
9.28075e-06	0.010264075052567849
9.28100e-06	0.010277113568612396
9.28125e-06	0.010290152084657033
9.28150e-06	0.01030319060070167
9.28175e-06	0.010316229116746305
9.28200e-06	0.010329267632790854
9.28225e-06	0.01034230614883549
9.28250e-06	0.010363063183866017
9.28275e-06	0.010401404357524957
9.28300e-06	0.010439745531184156
9.28325e-06	0.010478086704843357
9.28350e-06	0.010516427878502297
9.28375e-06	0.010554769052161498
9.28400e-06	0.010593110225820698
9.28425e-06	0.010631451399479639
9.28450e-06	0.01066979257313884
9.28475e-06	0.010708133746798038
9.28500e-06	0.010746474920456979
9.28525e-06	0.01078481609411618
9.28550e-06	0.010822984888367103
9.28575e-06	0.010861111938818455
9.28600e-06	0.010899238989270066
9.28625e-06	0.010937366039721674
9.28650e-06	0.010975493090173026
9.28675e-06	0.011013620140624637
9.28700e-06	0.011051747191076247
9.28725e-06	0.0110898742415276
9.28750e-06	0.01112800129197921
9.28775e-06	0.01116612834243082
9.28800e-06	0.011204255392882173
9.28825e-06	0.011233677783608302
9.28850e-06	0.011243269434311993
9.28875e-06	0.011252861085015617
9.28900e-06	0.011262452735719308
9.28925e-06	0.011272044386422998
9.28950e-06	0.011281636037126624
9.28975e-06	0.011291227687830314
9.29000e-06	0.011300819338534005
9.29025e-06	0.011310410989237695
9.29050e-06	0.01132000263994132
9.29075e-06	0.01132959429064501
9.29100e-06	0.0113391859413487
9.29125e-06	0.011325623203970675
9.29150e-06	0.011306453346002198
9.29175e-06	0.011287283488033721
9.29200e-06	0.011268113630065373
9.29225e-06	0.011248943772096896
9.29250e-06	0.011229773914128419
9.29275e-06	0.01121060405616007
9.29300e-06	0.011191434198191593
9.29325e-06	0.011172264340223116
9.29350e-06	0.01115309448225477
9.29375e-06	0.011133924624286291
9.29400e-06	0.011110925636801989
9.29425e-06	0.011079203221367517
9.29450e-06	0.011047480805932831
9.29475e-06	0.011015758390498145
9.29500e-06	0.010984035975063672
9.29525e-06	0.010952313559628985
9.29550e-06	0.0109205911441943
9.29575e-06	0.010888868728759826
9.29600e-06	0.01085714631332514
9.29625e-06	0.010825423897890454
9.29650e-06	0.010798640185444035
9.29675e-06	0.010773052440825317
9.29700e-06	0.010747464696206601
9.29725e-06	0.010721876951588057
9.29750e-06	0.01069628920696934
9.29775e-06	0.010670701462350624
9.29800e-06	0.01064511371773208
9.29825e-06	0.010619525973113364
9.29850e-06	0.010593938228494646
9.29875e-06	0.010573597050048556
9.29900e-06	0.01056520846861275
9.29925e-06	0.010556819887176886
9.29950e-06	0.010548431305741023
9.29975e-06	0.010540042724305218
9.30000e-06	0.010531654142869353
9.30025e-06	0.01052326556143349
9.30050e-06	0.010514876979997685
9.30075e-06	0.010506488398561822
9.30100e-06	0.010498099817125957
9.30125e-06	0.010489711235690152
9.30150e-06	0.01048132265425429
9.30175e-06	0.010472934072818426
9.30200e-06	0.010464545491382619
9.30225e-06	0.010456156909946756
9.30250e-06	0.010447768328510893
9.30275e-06	0.010439379747075086
9.30300e-06	0.010430991165639223
9.30325e-06	0.01042260258420336
9.30350e-06	0.010414214002767553
9.30375e-06	0.01040582542133169
9.30400e-06	0.010404819443952346
9.30425e-06	0.010405601255180955
9.30450e-06	0.010406383066409567
9.30475e-06	0.010407164877638181
9.30500e-06	0.01040794668886679
9.30525e-06	0.010408728500095403
9.30550e-06	0.010409510311324015
9.30575e-06	0.010410292122552624
9.30600e-06	0.010411073933781238
9.30625e-06	0.01041185574500985
9.30650e-06	0.010412637556238459
9.30675e-06	0.010413419367467073
9.30700e-06	0.010414201178695685
9.30725e-06	0.010414982989924298
9.30750e-06	0.010415764801152907
9.30775e-06	0.010416546612381521
9.30800e-06	0.010417328423610133
9.30825e-06	0.010418110234838742
9.30850e-06	0.010418892046067356
9.30875e-06	0.010419673857295968
9.30900e-06	0.010418522629705235
9.30925e-06	0.010412967600988511
9.30950e-06	0.010407412572271789
9.30975e-06	0.010401857543555102
9.31000e-06	0.01039630251483838
9.31025e-06	0.010390747486121657
9.31050e-06	0.010385192457404971
9.31075e-06	0.010379637428688249
9.31100e-06	0.010374082399971524
9.31125e-06	0.01036852737125484
9.31150e-06	0.010362972342538116
9.31175e-06	0.010357417313821393
9.31200e-06	0.010351862285104707
9.31225e-06	0.010346307256387985
9.31250e-06	0.010340752227671262
9.31275e-06	0.010335197198954576
9.31300e-06	0.010329642170237853
9.31325e-06	0.010324087141521129
9.31350e-06	0.010317353769565928
9.31375e-06	0.010307935925250557
9.31400e-06	0.010298518080935189
9.31425e-06	0.010289100236619882
9.31450e-06	0.010279682392304512
9.31475e-06	0.010270264547989143
9.31500e-06	0.010260846703673837
9.31525e-06	0.010251428859358466
9.31550e-06	0.010242011015043096
9.31575e-06	0.010232593170727727
9.31600e-06	0.01022317532641242
9.31625e-06	0.01021375748209705
9.31650e-06	0.01020433963778168
9.31675e-06	0.010194921793466375
9.31700e-06	0.010185503949151005
9.31725e-06	0.010176086104835634
9.31750e-06	0.010166668260520328
9.31775e-06	0.010157250416204959
9.31800e-06	0.010151055728440156
9.31825e-06	0.010152203956042393
9.31850e-06	0.010153352183644639
9.31875e-06	0.010154500411246884
9.31900e-06	0.010155648638849121
9.31925e-06	0.010156796866451366
9.31950e-06	0.01015794509405361
9.31975e-06	0.010159093321655849
9.32000e-06	0.010160241549258093
9.32025e-06	0.010161389776860338
9.32050e-06	0.010168254138704704
9.32075e-06	0.01018814085590501
9.32100e-06	0.010208027573105316
9.32125e-06	0.010227914290305487
9.32150e-06	0.010247801007505794
9.32175e-06	0.0102676877247061
9.32200e-06	0.010287574441906271
9.32225e-06	0.010307461159106577
9.32250e-06	0.010327347876306884
9.32275e-06	0.010347234593507055
9.32300e-06	0.01037102819138078
9.32325e-06	0.010403722347972872
9.32350e-06	0.01043641650456474
9.32375e-06	0.010469110661156831
9.32400e-06	0.010501804817748922
9.32425e-06	0.010534498974341012
9.32450e-06	0.010567193130932882
9.32475e-06	0.010599887287524973
9.32500e-06	0.010632581444117065
9.32525e-06	0.010665275600708934
9.32550e-06	0.010697969757301024
9.32575e-06	0.010730663913893115
9.32600e-06	0.010761029983193499
9.32625e-06	0.010786092261727474
9.32650e-06	0.010811154540261448
9.32675e-06	0.010836216818795255
9.32700e-06	0.01086127909732923
9.32725e-06	0.010886341375863206
9.32750e-06	0.01091140365439701
9.32775e-06	0.010936465932930985
9.32800e-06	0.010961528211464962
9.32825e-06	0.010986590489998766
9.32850e-06	0.011011652768532741
9.32875e-06	0.011036715047066718
9.32900e-06	0.011054255742119963
9.32925e-06	0.011054660952105609
9.32950e-06	0.011055066162091256
9.32975e-06	0.0110554713720769
9.33000e-06	0.011055876582062547
9.33025e-06	0.011056281792048192
9.33050e-06	0.011056687002033836
9.33075e-06	0.011057092212019483
9.33100e-06	0.01105749742200513
9.33125e-06	0.011057902631990774
9.33150e-06	0.011058307841976419
9.33175e-06	0.011058713051962066
9.33200e-06	0.01105911826194771
9.33225e-06	0.011059523471933357
9.33250e-06	0.011059928681919002
9.33275e-06	0.01106033389190465
9.33300e-06	0.011060739101890293
9.33325e-06	0.011048688585825608
9.33350e-06	0.011033621762101051
9.33375e-06	0.011018554938376595
9.33400e-06	0.011003488114652038
9.33425e-06	0.010988421290927482
9.33450e-06	0.010973354467203027
9.33475e-06	0.01095828764347847
9.33500e-06	0.010943220819753914
9.33525e-06	0.01092815399602946
9.33550e-06	0.010913087172304903
9.33575e-06	0.010898020348580346
9.33600e-06	0.01088295352485589
9.33625e-06	0.010867886701131334
9.33650e-06	0.010852819877406777
9.33675e-06	0.010837753053682323
9.33700e-06	0.010822686229957766
9.33725e-06	0.010810041523333527
9.33750e-06	0.010802914823857894
9.33775e-06	0.01079578812438221
9.33800e-06	0.010788661424906526
9.33825e-06	0.010781534725430893
9.33850e-06	0.01077440802595521
9.33875e-06	0.010767281326479526
9.33900e-06	0.010760154627003892
9.33925e-06	0.010753027927528209
9.33950e-06	0.010745901228052525
9.33975e-06	0.010738774528576892
9.34000e-06	0.010731647829101208
9.34025e-06	0.010724521129625525
9.34050e-06	0.010717394430149891
9.34075e-06	0.010710267730674208
9.34100e-06	0.010703141031198524
9.34125e-06	0.010696014331722842
9.34150e-06	0.010688887632247207
9.34175e-06	0.010681760932771523
9.34200e-06	0.010674634233295842
9.34225e-06	0.010667507533820206
9.34250e-06	0.010660380834344523
9.34275e-06	0.010653254134868841
9.34300e-06	0.010646127435393206
9.34325e-06	0.010639000735917522
9.34350e-06	0.01063187403644184
9.34375e-06	0.010629829351500664
9.34400e-06	0.010629015339047995
9.34425e-06	0.010628201326595327
9.34450e-06	0.010627387314142665
9.34475e-06	0.010626573301689996
9.34500e-06	0.010625759289237329
9.34525e-06	0.010624945276784667
9.34550e-06	0.010624131264331997
9.34575e-06	0.01062331725187933
9.34600e-06	0.010622503239426668
9.34625e-06	0.010621689226973999
9.34650e-06	0.010620875214521331
9.34675e-06	0.01062006120206867
9.34700e-06	0.010619247189616
9.34725e-06	0.010618433177163333
9.34750e-06	0.01061761916471067
9.34775e-06	0.010616805152258001
9.34800e-06	0.010615991139805334
9.34825e-06	0.010615177127352672
9.34850e-06	0.010614363114900004
9.34875e-06	0.010613549102447335
9.34900e-06	0.010612735089994673
9.34925e-06	0.010611921077542006
9.34950e-06	0.010611107065089337
9.34975e-06	0.01061029305263667
9.35000e-06	0.010610359470603348
9.35025e-06	0.010612431663331869
9.35050e-06	0.01061450385606039
9.35075e-06	0.010616576048788897
9.35100e-06	0.010618648241517419
9.35125e-06	0.01062072043424594
9.35150e-06	0.010622792626974447
9.35175e-06	0.010624864819702968
9.35200e-06	0.01062693701243149
9.35225e-06	0.010629009205159997
9.35250e-06	0.010631081397888518
9.35275e-06	0.010633153590617039
9.35300e-06	0.010635225783345546
9.35325e-06	0.010637297976074067
9.35350e-06	0.010639370168802589
9.35375e-06	0.010641442361531096
9.35400e-06	0.010643514554259617
9.35425e-06	0.010645586746988138
9.35450e-06	0.010647658939716646
9.35475e-06	0.010649731132445167
9.35500e-06	0.010651803325173688
9.35525e-06	0.010653875517902194
9.35550e-06	0.010655947710630715
9.35575e-06	0.010658019903359236
9.35600e-06	0.010658848102569124
9.35625e-06	0.010656842266574046
9.35650e-06	0.010654836430578966
9.35675e-06	0.0106528305945839
9.35700e-06	0.01065082475858882
9.35725e-06	0.010648818922593742
9.35750e-06	0.010646813086598676
9.35775e-06	0.010644807250603596
9.35800e-06	0.010642801414608518
9.35825e-06	0.010640795578613438
9.35850e-06	0.010638789742618372
9.35875e-06	0.010636783906623294
9.35900e-06	0.010634778070628214
9.35925e-06	0.010632772234633148
9.35950e-06	0.010630766398638069
9.35975e-06	0.01062876056264299
9.36000e-06	0.010626754726647925
9.36025e-06	0.010624748890652845
9.36050e-06	0.010622743054657767
9.36075e-06	0.0106207372186627
9.36100e-06	0.01061873138266762
9.36125e-06	0.010616725546672543
9.36150e-06	0.010614719710677477
9.36175e-06	0.010612713874682397
9.36200e-06	0.010607686530068163
9.36225e-06	0.010595775659396971
9.36250e-06	0.0105838647887257
9.36275e-06	0.010571953918054428
9.36300e-06	0.010560043047383236
9.36325e-06	0.010548132176711963
9.36350e-06	0.010536221306040691
9.36375e-06	0.0105243104353695
9.36400e-06	0.010512399564698228
9.36425e-06	0.010500488694026954
9.36450e-06	0.010488577823355763
9.36475e-06	0.010476666952684491
9.36500e-06	0.01046475608201322
9.36525e-06	0.010452845211342028
9.36550e-06	0.010440934340670754
9.36575e-06	0.010429023469999483
9.36600e-06	0.010417112599328291
9.36625e-06	0.01040520172865702
9.36650e-06	0.010396102197739723
9.36675e-06	0.010387683467412662
9.36700e-06	0.010379264737085657
9.36725e-06	0.010370846006758597
9.36750e-06	0.010362427276431534
9.36775e-06	0.010354008546104531
9.36800e-06	0.01034558981577747
9.36825e-06	0.010337171085450408
9.36850e-06	0.010328752355123405
9.36875e-06	0.010320333624796342
9.36900e-06	0.010311914894469282
9.36925e-06	0.010303496164142277
9.36950e-06	0.010295077433815216
9.36975e-06	0.010286658703488155
9.37000e-06	0.01027823997316115
9.37025e-06	0.01026982124283409
9.37050e-06	0.010261402512507027
9.37075e-06	0.010255315222425078
9.37100e-06	0.010254539361733565
9.37125e-06	0.010253763501042052
9.37150e-06	0.010252987640350545
9.37175e-06	0.010252211779659032
9.37200e-06	0.01025143591896752
9.37225e-06	0.010250660058276012
9.37250e-06	0.0102498841975845
9.37275e-06	0.010249108336892987
9.37300e-06	0.01024833247620148
9.37325e-06	0.010247556615509967
9.37350e-06	0.010246780754818455
9.37375e-06	0.010246004894126947
9.37400e-06	0.010245229033435435
9.37425e-06	0.010244453172743922
9.37450e-06	0.010243677312052415
9.37475e-06	0.010242901451360902
9.37500e-06	0.01024212559066939
9.37525e-06	0.010241349729977877
9.37550e-06	0.01024057386928637
9.37575e-06	0.010239798008594857
9.37600e-06	0.010239022147903344
9.37625e-06	0.010238246287211837
9.37650e-06	0.010237470426520323
9.37675e-06	0.01023669456582881
9.37700e-06	0.010235918705137303
9.37725e-06	0.01023514284444579
9.37750e-06	0.010234604636877826
9.37775e-06	0.010234607844766694
9.37800e-06	0.010234611052655562
9.37825e-06	0.01023461426054443
9.37850e-06	0.010234617468433299
9.37875e-06	0.010234620676322167
9.37900e-06	0.010234623884211034
9.37925e-06	0.010234627092099902
9.37950e-06	0.010234630299988771
9.37975e-06	0.01023463350787764
9.38000e-06	0.010234636715766507
9.38025e-06	0.010234639923655375
9.38050e-06	0.010234643131544242
9.38075e-06	0.010234646339433112
9.38100e-06	0.01023464954732198
9.38125e-06	0.010234652755210847
9.38150e-06	0.010234655963099715
9.38175e-06	0.010234659170988585
9.38200e-06	0.010234662378877452
9.38225e-06	0.01023466558676632
9.38250e-06	0.010234668794655188
9.38275e-06	0.010234672002544055
9.38300e-06	0.010234675210432925
9.38325e-06	0.010234678418321793
9.38350e-06	0.01023468162621066
9.38375e-06	0.010234684834099528
9.38400e-06	0.010234688041988398
9.38425e-06	0.010234470932815163
9.38450e-06	0.010233751902770582
9.38475e-06	0.010233032872726006
9.38500e-06	0.010232313842681424
9.38525e-06	0.010231594812636843
9.38550e-06	0.010230875782592267
9.38575e-06	0.010230156752547686
9.38600e-06	0.010229437722503105
9.38625e-06	0.01022871869245853
9.38650e-06	0.010227999662413948
9.38675e-06	0.010227280632369367
9.38700e-06	0.010226561602324791
9.38725e-06	0.01022584257228021
9.38750e-06	0.010225123542235629
9.38775e-06	0.010224404512191053
9.38800e-06	0.010223685482146472
9.38825e-06	0.01022296645210189
9.38850e-06	0.010222247422057315
9.38875e-06	0.010221528392012734
9.38900e-06	0.010218729750658313
9.38925e-06	0.010211193390350617
9.38950e-06	0.01020365703004287
9.38975e-06	0.010196120669735124
9.39000e-06	0.010188584309427429
9.39025e-06	0.010181047949119683
9.39050e-06	0.010173511588811936
9.39075e-06	0.01016597522850424
9.39100e-06	0.010158438868196494
9.39125e-06	0.010150902507888748
9.39150e-06	0.010143366147581052
9.39175e-06	0.010135829787273306
9.39200e-06	0.01012829342696556
9.39225e-06	0.010120757066657814
9.39250e-06	0.010113220706350118
9.39275e-06	0.010105684346042372
9.39300e-06	0.010098147985734626
9.39325e-06	0.01009061162542693
9.39350e-06	0.010083075265119184
9.39375e-06	0.01007407850935907
9.39400e-06	0.010061754716867514
9.39425e-06	0.010049430924375874
9.39450e-06	0.010037107131884233
9.39475e-06	0.010024783339392676
9.39500e-06	0.010012459546901036
9.39525e-06	0.010000135754409396
9.39550e-06	0.00998781196191784
9.39575e-06	0.009975488169426198
9.39600e-06	0.009963164376934558
9.39625e-06	0.009950840584443002
9.39650e-06	0.009940159478546791
9.39675e-06	0.00992987616946744
9.39700e-06	0.009919592860388158
9.39725e-06	0.009909309551308806
9.39750e-06	0.009899026242229454
9.39775e-06	0.009888742933150172
9.39800e-06	0.00987845962407082
9.39825e-06	0.009868176314991468
9.39850e-06	0.009857893005912185
9.39875e-06	0.009847609696832835
9.39900e-06	0.009835902479001419
9.39925e-06	0.009820951347534359
9.39950e-06	0.009806000216067198
9.39975e-06	0.009791049084600037
9.40000e-06	0.009776097953132976
9.40025e-06	0.009761146821665814
9.40050e-06	0.009746195690198653
9.40075e-06	0.009731244558731492
9.40100e-06	0.009716293427264431
9.40125e-06	0.00970134229579727
9.40150e-06	0.009686391164330108
9.40175e-06	0.009671440032863047
9.40200e-06	0.009656488901395886
