Time(s)	Current(A)
8.50000e-06	-0.0067796601193980035
8.50025e-06	-0.006799190202140377
8.50050e-06	-0.00681872028488275
8.50075e-06	-0.00683825036762499
8.50100e-06	-0.006857780450367363
8.50125e-06	-0.006877310533109736
8.50150e-06	-0.0068968406158519775
8.50175e-06	-0.006916370698594351
8.50200e-06	-0.006935900781336724
8.50225e-06	-0.0069512480115679854
8.50250e-06	-0.006965347304025089
8.50275e-06	-0.006979446596482193
8.50300e-06	-0.006993545888939201
8.50325e-06	-0.007007645181396305
8.50350e-06	-0.007021744473853409
8.50375e-06	-0.007035843766310417
8.50400e-06	-0.007049943058767521
8.50425e-06	-0.0070640423512246244
8.50450e-06	-0.007078141643681728
8.50475e-06	-0.0070922409361387365
8.50500e-06	-0.00710634022859584
8.50525e-06	-0.007120439521052944
8.50550e-06	-0.007134538813509951
8.50575e-06	-0.007148638105967055
8.50600e-06	-0.007153129593581381
8.50625e-06	-0.007154754629997219
8.50650e-06	-0.007156379666413067
8.50675e-06	-0.007158004702828916
8.50700e-06	-0.007159629739244753
8.50725e-06	-0.0071612547756606006
8.50750e-06	-0.007162879812076449
8.50775e-06	-0.007164504848492286
8.50800e-06	-0.007166129884908135
8.50825e-06	-0.007167754921323983
8.50850e-06	-0.007169379957739821
8.50875e-06	-0.007165822183965939
8.50900e-06	-0.007148266591465273
8.50925e-06	-0.007130710998964726
8.50950e-06	-0.007113155406464061
8.50975e-06	-0.007095599813963394
8.51000e-06	-0.0070780442214628475
8.51025e-06	-0.007060488628962182
8.51050e-06	-0.007042933036461516
8.51075e-06	-0.007025377443960969
8.51100e-06	-0.007007821851460303
8.51125e-06	-0.006990266258959638
8.51150e-06	-0.00697271066645909
8.51175e-06	-0.006948017544538897
8.51200e-06	-0.006921194968482542
8.51225e-06	-0.006894372392426368
8.51250e-06	-0.006867549816370011
8.51275e-06	-0.006840727240313656
8.51300e-06	-0.006813904664257299
8.51325e-06	-0.006787082088201125
8.51350e-06	-0.006760259512144769
8.51375e-06	-0.006733436936088413
8.51400e-06	-0.006706614360032239
8.51425e-06	-0.0066797917839758825
8.51450e-06	-0.006655747361628773
8.51475e-06	-0.006639206222365711
8.51500e-06	-0.006622665083102538
8.51525e-06	-0.006606123943839364
8.51550e-06	-0.0065895828045763015
8.51575e-06	-0.006573041665313128
8.51600e-06	-0.006556500526049954
8.51625e-06	-0.006539959386786892
8.51650e-06	-0.006523418247523719
8.51675e-06	-0.006506877108260545
8.51700e-06	-0.006490335968997483
8.51725e-06	-0.00647379482973431
8.51750e-06	-0.0064746690991946375
8.51775e-06	-0.006480739188100196
8.51800e-06	-0.0064868092770057955
8.51825e-06	-0.006492879365911395
8.51850e-06	-0.006498949454816954
8.51875e-06	-0.006505019543722554
8.51900e-06	-0.006511089632628153
8.51925e-06	-0.006517159721533712
8.51950e-06	-0.006523229810439311
8.51975e-06	-0.006529299899344911
8.52000e-06	-0.006535369988250469
8.52025e-06	-0.006541440077156069
8.52050e-06	-0.006560254275498309
8.52075e-06	-0.006582870629315465
8.52100e-06	-0.0066054869831327755
8.52125e-06	-0.006628103336950085
8.52150e-06	-0.006650719690767394
8.52175e-06	-0.006673336044584551
8.52200e-06	-0.006695952398401861
8.52225e-06	-0.00671856875221917
8.52250e-06	-0.006741185106036327
8.52275e-06	-0.006763801459853636
8.52300e-06	-0.006786417813670946
8.52325e-06	-0.006809034167488103
8.52350e-06	-0.006832830962634566
8.52375e-06	-0.006856979937859622
8.52400e-06	-0.0068811289130845145
8.52425e-06	-0.00690527788830957
8.52450e-06	-0.0069294268635346256
8.52475e-06	-0.0069535758387595185
8.52500e-06	-0.0069777248139845744
8.52525e-06	-0.00700187378920963
8.52550e-06	-0.007024547262057118
8.52575e-06	-0.00704323567389248
8.52600e-06	-0.007061924085727842
8.52625e-06	-0.0070806124975630776
8.52650e-06	-0.00709930090939844
8.52675e-06	-0.007117989321233802
8.52700e-06	-0.007136677733069037
8.52725e-06	-0.007155366144904399
8.52750e-06	-0.007174054556739761
8.52775e-06	-0.00719319274081199
8.52800e-06	-0.007212465112681653
8.52825e-06	-0.007231737484551315
8.52850e-06	-0.0072510098564208475
8.52875e-06	-0.00727028222829051
8.52900e-06	-0.007289554600160173
8.52925e-06	-0.007308826972029705
8.52950e-06	-0.0073280993438993676
8.52975e-06	-0.00734737171576903
8.53000e-06	-0.007366644087638693
8.53025e-06	-0.007385916459508225
8.53050e-06	-0.007405188831377888
8.53075e-06	-0.00742446120324755
8.53100e-06	-0.0074437335751170826
8.53125e-06	-0.007463286557746295
8.53150e-06	-0.007483597418515797
8.53175e-06	-0.007503908279285161
8.53200e-06	-0.007524219140054664
8.53225e-06	-0.007544530000824165
8.53250e-06	-0.00756484086159353
8.53275e-06	-0.007585151722363032
8.53300e-06	-0.007605462583132534
8.53325e-06	-0.0076257734439018985
8.53350e-06	-0.0076460843046714
8.53375e-06	-0.007666395165440903
8.53400e-06	-0.007686706026210267
8.53425e-06	-0.007707016886979769
8.53450e-06	-0.007727327747749271
8.53475e-06	-0.007747638608518635
8.53500e-06	-0.007760933050004246
8.53525e-06	-0.007772134170089438
8.53550e-06	-0.007783335290174554
8.53575e-06	-0.007794536410259746
8.53600e-06	-0.007805737530344938
8.53625e-06	-0.007816938650430054
8.53650e-06	-0.007828139770515247
8.53675e-06	-0.007839340890600439
8.53700e-06	-0.007850542010685555
8.53725e-06	-0.007861743130770748
8.53750e-06	-0.007872944250855938
8.53775e-06	-0.007884145370941054
8.53800e-06	-0.007895346491026247
8.53825e-06	-0.007902553780397113
8.53850e-06	-0.007898974466288861
8.53875e-06	-0.007895395152180634
8.53900e-06	-0.007891815838072382
8.53925e-06	-0.00788823652396413
8.53950e-06	-0.007884657209855903
8.53975e-06	-0.007881077895747652
8.54000e-06	-0.0078774985816394
8.54025e-06	-0.007873919267531173
8.54050e-06	-0.007870339953422921
8.54075e-06	-0.00786676063931467
8.54100e-06	-0.007863181325206442
8.54125e-06	-0.00785960201109819
8.54150e-06	-0.007856022696989939
8.54175e-06	-0.007846871891264833
8.54200e-06	-0.007836058852687781
8.54225e-06	-0.007825245814110728
8.54250e-06	-0.00781443277553375
8.54275e-06	-0.007803619736956699
8.54300e-06	-0.007792806698379647
8.54325e-06	-0.007781993659802668
8.54350e-06	-0.007771180621225617
8.54375e-06	-0.007760707595832308
8.54400e-06	-0.007751152883620989
8.54425e-06	-0.007741598171409604
8.54450e-06	-0.0077320434591982195
8.54475e-06	-0.0077224887469869
8.54500e-06	-0.007712934034775515
8.54525e-06	-0.007703379322564131
8.54550e-06	-0.007693824610352811
8.54575e-06	-0.007684269898141426
8.54600e-06	-0.0076724958821795235
8.54625e-06	-0.007660059745576252
8.54650e-06	-0.0076476236089728965
8.54675e-06	-0.007635187472369541
8.54700e-06	-0.007622751335766186
8.54725e-06	-0.007610315199162915
8.54750e-06	-0.007597879062559559
8.54775e-06	-0.007585442925956204
8.54800e-06	-0.007573006789352933
8.54825e-06	-0.0075605706527495774
8.54850e-06	-0.00753548574977393
8.54875e-06	-0.007506627136551288
8.54900e-06	-0.007477768523328451
8.54925e-06	-0.007448909910105613
8.54950e-06	-0.007420051296882972
8.54975e-06	-0.007391192683660134
8.55000e-06	-0.0073623340704372965
8.55025e-06	-0.007333475457214655
8.55050e-06	-0.007304616843991817
8.55075e-06	-0.00727575823076898
8.55100e-06	-0.007237556141045435
8.55125e-06	-0.0071965664614506005
8.55150e-06	-0.007155576781855765
8.55175e-06	-0.0071145871022612085
8.55200e-06	-0.007073597422666374
8.55225e-06	-0.007032607743071539
8.55250e-06	-0.006991618063476982
8.55275e-06	-0.006950628383882148
8.55300e-06	-0.006909638704287313
8.55325e-06	-0.006868649024692757
8.55350e-06	-0.006829312623244053
8.55375e-06	-0.006794441422523585
8.55400e-06	-0.006759570221803352
8.55425e-06	-0.006724699021082883
8.55450e-06	-0.006689827820362413
8.55475e-06	-0.0066549566196421805
8.55500e-06	-0.006620085418921711
8.55525e-06	-0.0065852142182012425
8.55550e-06	-0.006550343017480773
8.55575e-06	-0.00651547181676054
8.55600e-06	-0.006480600616040071
8.55625e-06	-0.006467523571145004
8.55650e-06	-0.006460948727870119
8.55675e-06	-0.00645437388459519
8.55700e-06	-0.006447799041320261
8.55725e-06	-0.006441224198045377
8.55750e-06	-0.006434649354770448
8.55775e-06	-0.0064280745114955185
8.55800e-06	-0.006421499668220634
8.55825e-06	-0.006414924824945705
8.55850e-06	-0.00641733101031291
8.55875e-06	-0.00644399330511468
8.55900e-06	-0.006470655599916632
8.55925e-06	-0.006497317894718582
8.55950e-06	-0.006523980189520353
8.55975e-06	-0.006550642484322303
8.56000e-06	-0.006577304779124254
8.56025e-06	-0.006603967073926025
8.56050e-06	-0.006630629368727975
8.56075e-06	-0.006657291663529926
8.56100e-06	-0.006700749297873577
8.56125e-06	-0.006749217756443289
8.56150e-06	-0.006797686215013001
8.56175e-06	-0.006846154673582385
8.56200e-06	-0.006894623132152097
8.56225e-06	-0.006943091590721809
8.56250e-06	-0.006991560049291193
8.56275e-06	-0.007040028507860905
8.56300e-06	-0.0070884969664306175
8.56325e-06	-0.007138067658529747
8.56350e-06	-0.007187967197715642
8.56375e-06	-0.007237866736901536
8.56400e-06	-0.007287766276087432
8.56425e-06	-0.007337665815272988
8.56450e-06	-0.007387565354458883
8.56475e-06	-0.0074374648936447775
8.56500e-06	-0.007487364432830335
8.56525e-06	-0.0075372639720162294
8.56550e-06	-0.007570434066022586
8.56575e-06	-0.00759861299512862
8.56600e-06	-0.007626791924234846
8.56625e-06	-0.007654970853341071
8.56650e-06	-0.007683149782447106
8.56675e-06	-0.007711328711553332
8.56700e-06	-0.007739507640659557
8.56725e-06	-0.007767686569765592
8.56750e-06	-0.007795865498871817
8.56775e-06	-0.007815705207908493
8.56800e-06	-0.007813022214621972
8.56825e-06	-0.007810339221335435
8.56850e-06	-0.007807656228048896
8.56875e-06	-0.007804973234762376
8.56900e-06	-0.007802290241475838
8.56925e-06	-0.0077996072481893
8.56950e-06	-0.00779692425490278
8.56975e-06	-0.007794241261616242
8.57000e-06	-0.007791558268329704
8.57025e-06	-0.0077700464076498575
8.57050e-06	-0.007742917027617437
8.57075e-06	-0.007715787647585017
8.57100e-06	-0.007688658267552781
8.57125e-06	-0.007661528887520361
8.57150e-06	-0.007634399507487941
8.57175e-06	-0.007607270127455704
8.57200e-06	-0.007580140747423284
8.57225e-06	-0.0075530113673908635
8.57250e-06	-0.007525881987358444
8.57275e-06	-0.007493587081685755
8.57300e-06	-0.007459751061529014
8.57325e-06	-0.007425915041372273
8.57350e-06	-0.007392079021215761
8.57375e-06	-0.00735824300105902
8.57400e-06	-0.007324406980902279
8.57425e-06	-0.0072905709607457665
8.57450e-06	-0.007256734940589026
8.57475e-06	-0.007222898920432284
8.57500e-06	-0.007189062900275773
8.57525e-06	-0.007168175874723841
8.57550e-06	-0.007151152131348465
8.57575e-06	-0.007134128387973205
8.57600e-06	-0.007117104644597829
8.57625e-06	-0.007100080901222453
8.57650e-06	-0.007083057157847192
8.57675e-06	-0.0070660334144718165
8.57700e-06	-0.007049009671096441
8.57725e-06	-0.00703198592772118
8.57750e-06	-0.007023524885768331
8.57775e-06	-0.0070381901282489555
8.57800e-06	-0.007052855370729481
8.57825e-06	-0.007067520613210107
8.57850e-06	-0.007082185855690732
8.57875e-06	-0.007096851098171258
8.57900e-06	-0.007111516340651883
8.57925e-06	-0.007126181583132508
8.57950e-06	-0.007140846825613034
8.57975e-06	-0.007155512068093659
8.58000e-06	-0.007190946105077219
8.58025e-06	-0.007232576431122821
8.58050e-06	-0.0072742067571687045
8.58075e-06	-0.007315837083214588
8.58100e-06	-0.007357467409260472
8.58125e-06	-0.007399097735306074
8.58150e-06	-0.007440728061351959
8.58175e-06	-0.007482358387397843
8.58200e-06	-0.007523988713443445
8.58225e-06	-0.007573528628084476
8.58250e-06	-0.007625428337719787
8.58275e-06	-0.007677328047354746
8.58300e-06	-0.0077292277569900565
8.58325e-06	-0.007781127466625367
8.58350e-06	-0.007833027176260327
8.58375e-06	-0.007884926885895637
8.58400e-06	-0.007936826595530948
8.58425e-06	-0.007988726305165906
8.58450e-06	-0.008032180273420324
8.58475e-06	-0.008073114487581825
8.58500e-06	-0.00811404870174305
8.58525e-06	-0.008154982915904552
8.58550e-06	-0.008195917130066054
8.58575e-06	-0.008236851344227279
8.58600e-06	-0.00827778555838878
8.58625e-06	-0.008318719772550283
8.58650e-06	-0.008359653986711508
8.58675e-06	-0.008386738291267171
8.58700e-06	-0.008409690529157996
8.58725e-06	-0.008432642767048668
8.58750e-06	-0.008455595004939495
8.58775e-06	-0.00847854724283032
8.58800e-06	-0.008501499480720992
8.58825e-06	-0.008524451718611818
8.58850e-06	-0.008547403956502643
8.58875e-06	-0.008570356194393315
8.58900e-06	-0.008580815287880414
8.58925e-06	-0.008587547100323473
8.58950e-06	-0.00859427891276653
8.58975e-06	-0.008601010725209541
8.59000e-06	-0.008607742537652598
8.59025e-06	-0.008614474350095656
8.59050e-06	-0.008621206162538668
8.59075e-06	-0.008627937974981724
8.59100e-06	-0.008634669787424781
8.59125e-06	-0.008641401599867793
8.59150e-06	-0.008648133412310851
8.59175e-06	-0.008654865224753908
8.59200e-06	-0.00866159703719692
8.59225e-06	-0.008668328849639976
8.59250e-06	-0.008675060662083034
8.59275e-06	-0.008681792474526046
8.59300e-06	-0.008688524286969103
8.59325e-06	-0.008693710531266758
8.59350e-06	-0.008694722479767113
8.59375e-06	-0.008695734428267474
8.59400e-06	-0.008696746376767836
8.59425e-06	-0.00869775832526819
8.59450e-06	-0.008698770273768553
8.59475e-06	-0.008699782222268913
8.59500e-06	-0.008700794170769268
8.59525e-06	-0.00870180611926963
8.59550e-06	-0.008702818067769992
8.59575e-06	-0.008703830016270345
8.59600e-06	-0.008704841964770707
8.59625e-06	-0.00870585391327107
8.59650e-06	-0.008706865861771424
8.59675e-06	-0.008707877810271785
8.59700e-06	-0.008708889758772147
8.59725e-06	-0.008709901707272502
8.59750e-06	-0.008710913655772864
8.59775e-06	-0.008717017896392861
8.59800e-06	-0.008724641402562027
8.59825e-06	-0.00873226490873114
8.59850e-06	-0.008739888414900306
8.59875e-06	-0.008747511921069472
8.59900e-06	-0.008755135427238585
8.59925e-06	-0.008762758933407751
8.59950e-06	-0.008770382439576917
8.59975e-06	-0.00877800594574603
8.60000e-06	-0.008785629451915196
8.60025e-06	-0.00879325295808436
8.60050e-06	-0.008800876464253473
8.60075e-06	-0.008808499970422639
8.60100e-06	-0.008816123476591805
8.60125e-06	-0.008823746982760918
8.60150e-06	-0.008832291182737918
8.60175e-06	-0.008843322007652973
8.60200e-06	-0.008854352832567953
8.60225e-06	-0.008865383657483008
8.60250e-06	-0.008876414482398063
8.60275e-06	-0.008887445307313044
8.60300e-06	-0.008898476132228099
8.60325e-06	-0.008909506957143154
8.60350e-06	-0.008920537782058136
8.60375e-06	-0.008931568606973191
8.60400e-06	-0.008942599431888246
8.60425e-06	-0.008953630256803227
8.60450e-06	-0.008964661081718282
8.60475e-06	-0.008975691906633337
8.60500e-06	-0.008986722731548318
8.60525e-06	-0.008997753556463373
8.60550e-06	-0.009003113266724556
8.60575e-06	-0.009006781021983941
8.60600e-06	-0.009010448777243352
8.60625e-06	-0.009014116532502761
8.60650e-06	-0.009017784287762173
8.60675e-06	-0.009021452043021558
8.60700e-06	-0.009025119798280969
8.60725e-06	-0.00902878755354038
8.60750e-06	-0.009032455308799765
8.60775e-06	-0.009020458109504033
8.60800e-06	-0.009003787331938105
8.60825e-06	-0.00898711655437229
8.60850e-06	-0.008970445776806361
8.60875e-06	-0.008953774999240433
8.60900e-06	-0.008937104221674617
8.60925e-06	-0.00892043344410869
8.60950e-06	-0.008903762666542761
8.60975e-06	-0.008887091888976946
8.61000e-06	-0.00885552815511987
8.61025e-06	-0.008819521165672176
8.61050e-06	-0.008783514176224727
8.61075e-06	-0.008747507186777031
8.61100e-06	-0.008711500197329337
8.61125e-06	-0.008675493207881888
8.61150e-06	-0.008639486218434194
8.61175e-06	-0.008603479228986499
8.61200e-06	-0.00856747223953905
8.61225e-06	-0.008529803199402658
8.61250e-06	-0.008487645265502428
8.61275e-06	-0.008445487331602483
8.61300e-06	-0.008403329397702252
8.61325e-06	-0.008361171463802022
8.61350e-06	-0.008319013529902075
8.61375e-06	-0.008276855596001845
8.61400e-06	-0.008234697662101614
8.61425e-06	-0.00819253972820167
8.61450e-06	-0.008150381794301439
8.61475e-06	-0.00812122205943148
8.61500e-06	-0.008095940286692976
8.61525e-06	-0.008070658513954646
8.61550e-06	-0.008045376741216142
8.61575e-06	-0.008020094968477639
8.61600e-06	-0.007994813195739308
8.61625e-06	-0.007969531423000805
8.61650e-06	-0.007944249650262303
8.61675e-06	-0.007918967877523971
8.61700e-06	-0.007893686104785467
8.61725e-06	-0.007868404332046965
8.61750e-06	-0.007843122559308633
8.61775e-06	-0.00781784078657013
8.61800e-06	-0.007792559013831628
8.61825e-06	-0.007767277241093296
8.61850e-06	-0.00774583602207101
8.61875e-06	-0.007734767433527687
8.61900e-06	-0.007723698844984439
8.61925e-06	-0.0077126302564411164
8.61950e-06	-0.0077015616678977935
8.61975e-06	-0.007690493079354546
8.62000e-06	-0.007679424490811223
8.62025e-06	-0.0076683559022679
8.62050e-06	-0.007657287313724653
8.62075e-06	-0.00764621872518133
8.62100e-06	-0.007635150136638007
8.62125e-06	-0.007624081548094759
8.62150e-06	-0.007613012959551436
8.62175e-06	-0.007601944371008113
8.62200e-06	-0.007590875782464866
8.62225e-06	-0.007579807193921543
8.62250e-06	-0.007572197357370591
8.62275e-06	-0.007565619426026121
8.62300e-06	-0.007559041494681605
8.62325e-06	-0.00755246356333709
8.62350e-06	-0.007545885631992575
8.62375e-06	-0.007539307700648104
8.62400e-06	-0.00753272976930359
8.62425e-06	-0.007526936174114865
8.62450e-06	-0.0075232609268827706
8.62475e-06	-0.007519585679650651
8.62500e-06	-0.007515910432418532
8.62525e-06	-0.007512235185186437
8.62550e-06	-0.007508559937954318
8.62575e-06	-0.007504884690722199
8.62600e-06	-0.007501209443490105
8.62625e-06	-0.007507831159151604
8.62650e-06	-0.007517524933649783
8.62675e-06	-0.007527218708147896
8.62700e-06	-0.007536912482646074
8.62725e-06	-0.007546606257144253
8.62750e-06	-0.007556300031642365
8.62775e-06	-0.007565993806140544
8.62800e-06	-0.007575687580638722
8.62825e-06	-0.007585381355136835
8.62850e-06	-0.0076129665090410095
8.62875e-06	-0.007645889486415719
8.62900e-06	-0.007678812463790205
8.62925e-06	-0.0077117354411649144
8.62950e-06	-0.007744658418539624
8.62975e-06	-0.00777758139591411
8.63000e-06	-0.007810504373288819
8.63025e-06	-0.007843427350663528
8.63050e-06	-0.007876350328038014
8.63075e-06	-0.007922555387866452
8.63100e-06	-0.007972723105344305
8.63125e-06	-0.00802289082282182
8.63150e-06	-0.008073058540299676
8.63175e-06	-0.00812322625777753
8.63200e-06	-0.008173393975255384
8.63225e-06	-0.0082235616927329
8.63250e-06	-0.008273729410210753
8.63275e-06	-0.008324482384391183
8.63300e-06	-0.008376816029475154
8.63325e-06	-0.008429149674559478
8.63350e-06	-0.008481483319643804
8.63375e-06	-0.008533816964727775
8.63400e-06	-0.008586150609812099
8.63425e-06	-0.008638484254896424
8.63450e-06	-0.008690817899980394
8.63475e-06	-0.00874315154506472
8.63500e-06	-0.008781204822764779
8.63525e-06	-0.008814997608387427
8.63550e-06	-0.008848790394010306
8.63575e-06	-0.008882583179633183
8.63600e-06	-0.00891637596525583
8.63625e-06	-0.00895016875087871
8.63650e-06	-0.008983961536501587
8.63675e-06	-0.009017754322124236
8.63700e-06	-0.009051547107747113
8.63725e-06	-0.00908533989336999
8.63750e-06	-0.00911913267899264
8.63775e-06	-0.0091332557863283
8.63800e-06	-0.009141510521635565
8.63825e-06	-0.009149765256942775
8.63850e-06	-0.009158019992250039
8.63875e-06	-0.009166274727557305
8.63900e-06	-0.009174529462864513
8.63925e-06	-0.009182784198171779
8.63950e-06	-0.009191038933479044
8.63975e-06	-0.009199293668786253
8.64000e-06	-0.009207548404093518
8.64025e-06	-0.009215803139400782
8.64050e-06	-0.009210138455304016
8.64075e-06	-0.009200320966555625
8.64100e-06	-0.00919050347780717
8.64125e-06	-0.009180685989058713
8.64150e-06	-0.009170868500310323
8.64175e-06	-0.009161051011561868
8.64200e-06	-0.00915123352281341
8.64225e-06	-0.009141416034065021
8.64250e-06	-0.009131598545316564
8.64275e-06	-0.009121781056568109
8.64300e-06	-0.009111963567819719
8.64325e-06	-0.009102146079071262
8.64350e-06	-0.009092328590322806
8.64375e-06	-0.009082511101574415
8.64400e-06	-0.009072890544531392
8.64425e-06	-0.009063801863869434
8.64450e-06	-0.009054713183207538
8.64475e-06	-0.00904562450254558
8.64500e-06	-0.009036535821883622
8.64525e-06	-0.009027447141221726
8.64550e-06	-0.009018358460559768
8.64575e-06	-0.00900926977989781
8.64600e-06	-0.009000181099235914
8.64625e-06	-0.008991092418573956
8.64650e-06	-0.008982003737911998
8.64675e-06	-0.008972915057250102
