Time(s)	Current(A)
7.05000e-06	0.0005087424973931996
7.05025e-06	0.00045069875122421535
7.05050e-06	0.00039599450404655747
7.05075e-06	0.0003450844498483142
7.05100e-06	0.000298191485717631
7.05125e-06	0.000254801513420927
7.05150e-06	0.00021382951390906934
7.05175e-06	0.00017458451457194604
7.05200e-06	0.00013708689678191063
7.05225e-06	0.00010160872117344913
7.05250e-06	6.842198926496453e-05
7.05275e-06	3.7798657478979e-05
7.05300e-06	9.865484351106956e-06
7.05325e-06	-1.5712440577069708e-05
7.05350e-06	-3.962759330654383e-05
7.05375e-06	-6.23255712713654e-05
7.05400e-06	-8.380636650419547e-05
7.05425e-06	-0.00010391232484458917
7.05450e-06	-0.0001224858298009315
7.05475e-06	-0.00013936932627283614
7.05500e-06	-0.00015449621635409773
7.05525e-06	-0.0001680890777637261
7.05550e-06	-0.0001805944444520161
7.05575e-06	-0.00019230416188558287
7.05600e-06	-0.00020323095693614563
7.05625e-06	-0.0002130492724955777
7.05650e-06	-0.00022213135562024512
7.05675e-06	-0.00023020143375148707
7.05700e-06	-0.00023717161197097682
7.05725e-06	-0.0002434082436402139
7.05750e-06	-0.0002488476185853588
7.05775e-06	-0.00025388537546932227
7.05800e-06	-0.00025848663285687096
7.05825e-06	-0.000262506293087317
7.05850e-06	-0.0002658938431346054
7.05875e-06	-0.0002692813931819052
7.05900e-06	-0.0002720227455647821
7.05925e-06	-0.0002740617765573421
7.05950e-06	-0.00027610080754990904
7.05975e-06	-0.000278139838542469
7.06000e-06	-0.00027978106726852923
7.06025e-06	-0.0002814138420494375
7.06050e-06	-0.00028304661683034024
7.06075e-06	-0.0002844585841100868
7.06100e-06	-0.00028563056625875304
7.06125e-06	-0.000286012477575442
7.06150e-06	-0.00028441550534736274
7.06175e-06	-0.00028037857321578627
7.06200e-06	-0.00027385337161550503
7.06225e-06	-0.0002649711133492245
7.06250e-06	-0.0002538630287996988
7.06275e-06	-0.00024066034592726726
7.06300e-06	-0.0002253975706745513
7.06325e-06	-0.00020781471876629446
7.06350e-06	-0.00018746099838565838
7.06375e-06	-0.00016411288962013822
7.06400e-06	-0.00013787968009787267
7.06425e-06	-0.00010898310204895878
7.06450e-06	-7.764487512403021e-05
7.06475e-06	-4.4086716698739904e-05
7.06500e-06	-8.46973209197107e-06
7.06525e-06	2.922942998655376e-05
7.06550e-06	6.915363696683748e-05
7.06575e-06	0.00011130337193251
7.06600e-06	0.00015547065711392024
7.06625e-06	0.00020137708716331208
7.06650e-06	0.0002489928682380382
7.06675e-06	0.00029756410536829335
7.06700e-06	0.00034715726097419295
7.06725e-06	0.00039786109098244934
7.06750e-06	0.0004485649209905339
7.06775e-06	0.0004998575862762437
7.06800e-06	0.0005517902285127717
7.06825e-06	0.0006037228707491236
7.06850e-06	0.0006556555129854756
7.06875e-06	0.0007062779299033332
7.06900e-06	0.000755476325475936
7.06925e-06	0.0008046747210485387
7.06950e-06	0.0008538731166213082
7.06975e-06	0.0009003940863450668
7.07000e-06	0.0009440050897414786
7.07025e-06	0.000987616093138038
7.07050e-06	0.0010281962254074192
7.07075e-06	0.001065482248551098
7.07100e-06	0.001099708931557151
7.07125e-06	0.0011306105638288582
7.07150e-06	0.0011583572402522366
7.07175e-06	0.0011826749457903604
7.07200e-06	0.0012037450363812144
7.07225e-06	0.00122128544933626
7.07250e-06	0.0012354180882393406
7.07275e-06	0.0012458469802222238
7.07300e-06	0.0012527807386416053
7.07325e-06	0.0012559158032584047
7.07350e-06	0.001255738904781886
7.07375e-06	0.0012519623917418075
7.07400e-06	0.0012450589269878693
7.07425e-06	0.0012347569277057775
7.07450e-06	0.0012207588754213814
7.07475e-06	0.0012027437595890924
7.07500e-06	0.0011847286437568032
7.07525e-06	0.0011627834841996512
7.07550e-06	0.0011365669477497618
7.07575e-06	0.0011103504112997837
7.07600e-06	0.0010810112650784759
7.07625e-06	0.0010482783033791093
7.07650e-06	0.001015545341679632
7.07675e-06	0.0009804598281259846
7.07700e-06	0.0009428174382796399
7.07725e-06	0.0009051750484331676
7.07750e-06	0.0008660600032438048
7.07775e-06	0.0008253443992710197
7.07800e-06	0.0007846287952980966
7.07825e-06	0.0007439131913253114
7.07850e-06	0.0007031975873525262
7.07875e-06	0.0006624819833796031
7.07900e-06	0.000621766379406818
7.07925e-06	0.0005810507754340328
7.07950e-06	0.0005415745705858373
7.07975e-06	0.0005034454094738269
7.08000e-06	0.0004668539793818074
7.08025e-06	0.00043193383571978684
7.08050e-06	0.00039849499642016155
7.08075e-06	0.00036782855267649593
7.08100e-06	0.0003396512305338983
7.08125e-06	0.0003139435768189205
7.08150e-06	0.0002904851354773742
7.08175e-06	0.000269126392915677
7.08200e-06	0.0002499008541257215
7.08225e-06	0.0002329105413738542
7.08250e-06	0.00021825747237598134
7.08275e-06	0.00020604361300767985
7.08300e-06	0.00019632838479948376
7.08325e-06	0.00018903006794200955
7.08350e-06	0.00018394106185856205
7.08375e-06	0.00018089821999342466
7.08400e-06	0.00017985302186696055
7.08425e-06	0.00018079987833244916
7.08450e-06	0.00018373320266570214
7.08475e-06	0.0001886473638811591
7.08500e-06	0.00019551007146362048
7.08525e-06	0.00020420064432030412
7.08550e-06	0.0002145195613392888
7.08575e-06	0.00022629513512558986
7.08600e-06	0.00023942752622619032
7.08625e-06	0.0002541247977142785
7.08650e-06	0.0002697763429688452
7.08675e-06	0.00028647367808571354
7.08700e-06	0.00030430763227468625
7.08725e-06	0.00032303095482507125
7.08750e-06	0.00034272088938610033
7.08775e-06	0.0003624108239471294
7.08800e-06	0.0003826166826226929
7.08825e-06	0.0004033832745863538
7.08850e-06	0.000424149866550085
7.08875e-06	0.00044491645851374586
7.08900e-06	0.0004656830504774067
7.08925e-06	0.00048528420549137185
7.08950e-06	0.0005048605930747608
7.08975e-06	0.0005244369806581498
7.09000e-06	0.000544013368241605
7.09025e-06	0.00056198434969561
7.09050e-06	0.0005782104918748309
7.09075e-06	0.0005944366340541068
7.09100e-06	0.0006097794814778371
7.09125e-06	0.0006241623180031655
7.09150e-06	0.0006385451545285428
7.09175e-06	0.0006529279910538712
7.09200e-06	0.000668308453956071
7.09225e-06	0.000684773189337432
7.09250e-06	0.0007012379247187372
7.09275e-06	0.0007177026601000982
7.09300e-06	0.0007349413118700938
7.09325e-06	0.0007530210964136576
7.09350e-06	0.0007711008809572829
7.09375e-06	0.0007915430522737231
7.09400e-06	0.0008145527889854981
7.09425e-06	0.0008375625256973511
7.09450e-06	0.0008605722624091262
7.09475e-06	0.0008835819991209012
7.09500e-06	0.0009065917358327542
7.09525e-06	0.0009296014725445293
7.09550e-06	0.0009526112092563043
7.09575e-06	0.0009802546160767559
7.09600e-06	0.0010079964959224211
7.09625e-06	0.0010357383757680864
7.09650e-06	0.0010634802556138455
7.09675e-06	0.0010912221354595108
7.09700e-06	0.00111896401530527
7.09725e-06	0.0011467058951509352
7.09750e-06	0.001174810334236681
7.09775e-06	0.0012033088216507714
7.09800e-06	0.0012318073090647654
7.09825e-06	0.0012603057964787592
7.09850e-06	0.0012888042838928497
7.09875e-06	0.0013173027713068437
7.09900e-06	0.0013458012587208375
7.09925e-06	0.0013718273731364188
7.09950e-06	0.0013951663833793237
7.09975e-06	0.0014185053936222286
7.10000e-06	0.0014418444038652126
7.10025e-06	0.0014651834141081177
7.10050e-06	0.0014885224243510226
7.10075e-06	0.0015118614345940066
7.10100e-06	0.001527842997334004
7.10125e-06	0.0015358281016529152
7.10150e-06	0.0015438132059717995
7.10175e-06	0.0015517983102906838
7.10200e-06	0.0015597834146095953
7.10225e-06	0.0015677685189284794
7.10250e-06	0.0015757536232473637
7.10275e-06	0.0015837387275662751
7.10300e-06	0.0015917238318851595
7.10325e-06	0.0015997089362040438
7.10350e-06	0.001607694040522955
7.10375e-06	0.0015956480821424227
7.10400e-06	0.0015831764311048865
7.10425e-06	0.0015707047800673083
7.10450e-06	0.0015582331290297721
7.10475e-06	0.0015457614779922362
7.10500e-06	0.0015332898269546577
7.10525e-06	0.0015208181759171218
7.10550e-06	0.0015083465248795433
7.10575e-06	0.0014958748738420071
7.10600e-06	0.0014834032228044712
7.10625e-06	0.001465500832266691
7.10650e-06	0.0014416960302489684
7.10675e-06	0.0014178912282312459
7.10700e-06	0.001394086426213443
7.10725e-06	0.0013702816241957204
7.10750e-06	0.0013464768221779979
7.10775e-06	0.0013226720201601947
7.10800e-06	0.001296717735025699
7.10825e-06	0.0012707177698795217
7.10850e-06	0.0012447178047332564
7.10875e-06	0.0012187178395870794
7.10900e-06	0.001192717874440902
7.10925e-06	0.0011667179092946368
7.10950e-06	0.0011437058359341295
7.10975e-06	0.0011239411595026618
7.11000e-06	0.0011041764830712608
7.11025e-06	0.00108441180663986
7.11050e-06	0.001064647130208392
7.11075e-06	0.001044882453776991
7.11100e-06	0.0010251177773455901
7.11125e-06	0.0010053531009141224
7.11150e-06	0.0009855884244827215
7.11175e-06	0.0009725228725940561
7.11200e-06	0.0009667382793301886
7.11225e-06	0.0009609536860663406
7.11250e-06	0.0009551690928024926
7.11275e-06	0.000949384499538625
7.11300e-06	0.0009435999062747772
7.11325e-06	0.0009378153130109292
7.11350e-06	0.0009320307197470616
7.11375e-06	0.0009262461264832137
7.11400e-06	0.0009250247071654015
7.11425e-06	0.0009287627837467107
7.11450e-06	0.0009325008603280199
7.11475e-06	0.0009382625703478086
7.11500e-06	0.0009462236709360509
7.11525e-06	0.0009541847715242931
7.11550e-06	0.0009642038865860326
7.11575e-06	0.0009764597593216475
7.11600e-06	0.0009887156320572625
7.11625e-06	0.0010009715047929189
7.11650e-06	0.0010132273775285338
7.11675e-06	0.0010264684532434055
7.11700e-06	0.0010420083461612742
7.11725e-06	0.00105754823907909
7.11750e-06	0.0010730881319969058
7.11775e-06	0.0010886280249147746
7.11800e-06	0.001104137581731252
7.11825e-06	0.0011194263636139954
7.11850e-06	0.0011347151454966873
7.11875e-06	0.001150003927379379
7.11900e-06	0.0011652927092621226
7.11925e-06	0.0011805814911448143
7.11950e-06	0.0011938586810361805
7.11975e-06	0.0012059071800175959
7.12000e-06	0.0012179556789989705
7.12025e-06	0.0012300041779803451
7.12050e-06	0.0012420526769617605
7.12075e-06	0.001253465787988485
7.12100e-06	0.0012602547803114664
7.12125e-06	0.0012670437726344708
7.12150e-06	0.0012728845382487496
7.12175e-06	0.0012718244603281935
7.12200e-06	0.0012699873338040811
7.12225e-06	0.0012624951347296042
7.12250e-06	0.0012542739854058565
7.12275e-06	0.0012407478055781068
7.12300e-06	0.0012264390992786504
7.12325e-06	0.0012064354545290605
7.12350e-06	0.0011854951998077961
7.12375e-06	0.0011577386438705655
7.12400e-06	0.0011291526585340936
7.12425e-06	0.0010945303925767977
7.12450e-06	0.0010591882827106923
7.12475e-06	0.001018607414920869
7.12500e-06	0.0009773525583932027
7.12525e-06	0.0009311926609279438
7.12550e-06	0.0008843416871512784
7.12575e-06	0.0008324613153944268
7.12600e-06	0.0007800364512803139
7.12625e-06	0.00072364897302725
7.12650e-06	0.0006667916884728614
7.12675e-06	0.0006065153272903251
7.12700e-06	0.0005462389661079932
7.12725e-06	0.0004855784579959685
7.12750e-06	0.00042212227050537963
7.12775e-06	0.0003586660830150058
7.12800e-06	0.00029513485318476086
7.12825e-06	0.00023105749293945502
7.12850e-06	0.0001669801326943663
7.12875e-06	0.00010305454337455807
7.12900e-06	4.037223333102915e-05
7.12925e-06	-2.114083759924668e-05
7.12950e-06	-8.129764782541856e-05
7.12975e-06	-0.00013981450821610948
7.13000e-06	-0.0001962810396115323
7.13025e-06	-0.00025029869565446083
7.13050e-06	-0.00030148190899346316
7.13075e-06	-0.0003494509432144278
7.13100e-06	-0.0003939516986929967
7.13125e-06	-0.0004354102251999132
7.13150e-06	-0.0004749061072977075
7.13175e-06	-0.0005129413436992534
7.13200e-06	-0.0005489768625596978
7.13225e-06	-0.0005845514072139975
7.13250e-06	-0.0006167711519671992
7.13275e-06	-0.0006484510137885029
7.13300e-06	-0.000676201807167303
7.13325e-06	-0.0007035973020811326
7.13350e-06	-0.0007284070660807884
7.13375e-06	-0.0007528952754706047
7.13400e-06	-0.0007750433292533613
7.13425e-06	-0.000797191383036043
7.13450e-06	-0.000818842443930176
7.13475e-06	-0.0008368765742650913
7.13500e-06	-0.0008549107045999454
7.13525e-06	-0.0008725853372396578
7.13550e-06	-0.0008876436785205254
7.13575e-06	-0.0009027020198013931
7.13600e-06	-0.0009172598860129527
7.13625e-06	-0.0009281754796405717
7.13650e-06	-0.0009390910732681906
7.13675e-06	-0.0009500066668958466
7.13700e-06	-0.0009609222605234656
7.13725e-06	-0.0009718378541510845
7.13750e-06	-0.0009827534477787406
7.13775e-06	-0.0009936690414063594
7.13800e-06	-0.0010045846350339785
7.13825e-06	-0.0010131703908271546
7.13850e-06	-0.0010203330694852416
7.13875e-06	-0.0010274957481433288
7.13900e-06	-0.0010346584268014403
7.13925e-06	-0.0010418211054595272
7.13950e-06	-0.0010489837841176387
7.13975e-06	-0.001056146462775726
7.14000e-06	-0.001063309141433813
7.14025e-06	-0.0010706558599582836
7.14050e-06	-0.0010793419526104228
7.14075e-06	-0.0010880280452625621
7.14100e-06	-0.0010967141379147306
7.14125e-06	-0.0011054002305668697
7.14150e-06	-0.001114086323219009
7.14175e-06	-0.0011227724158711775
7.14200e-06	-0.0011314585085233167
7.14225e-06	-0.001140144601175456
7.14250e-06	-0.0011488306938276245
7.14275e-06	-0.0011575167864797636
7.14300e-06	-0.001166202879131903
7.14325e-06	-0.0011748889717840714
7.14350e-06	-0.0011835750644362108
7.14375e-06	-0.0011922611570883792
7.14400e-06	-0.0012009472497405184
7.14425e-06	-0.0012141512021653991
7.14450e-06	-0.00123011468696897
7.14475e-06	-0.001246078171772487
7.14500e-06	-0.0012620416565760036
7.14525e-06	-0.0012780051413795745
7.14550e-06	-0.0012939686261830914
7.14575e-06	-0.0013099321109866083
7.14600e-06	-0.0013258955957901792
7.14625e-06	-0.0013418590805936961
7.14650e-06	-0.0013578225653972128
7.14675e-06	-0.0013737860502007837
7.14700e-06	-0.0013897495350043006
7.14725e-06	-0.0014057130198078176
7.14750e-06	-0.0014216765046113885
7.14775e-06	-0.0014376399894149054
7.14800e-06	-0.001453768855694079
7.14825e-06	-0.0014711013072285365
7.14850e-06	-0.001488433758762994
7.14875e-06	-0.0015057662102975103
7.14900e-06	-0.0015230986618319678
7.14925e-06	-0.0015404311133664253
7.14950e-06	-0.0015577635649009415
7.14975e-06	-0.001575096016435399
7.15000e-06	-0.001591839417831004
7.15025e-06	-0.0016042959300261045
7.15050e-06	-0.0016167524422211626
7.15075e-06	-0.0016292089544162208
7.15100e-06	-0.0016416654666113212
7.15125e-06	-0.0016541219788063794
7.15150e-06	-0.0016665784910014376
7.15175e-06	-0.0016790350031965378
7.15200e-06	-0.0016899617750064902
7.15225e-06	-0.001689755661679195
7.15250e-06	-0.0016895495483519004
7.15275e-06	-0.0016893434350246058
7.15300e-06	-0.0016891373216973103
7.15325e-06	-0.0016889312083700158
7.15350e-06	-0.0016887250950427212
7.15375e-06	-0.001688518981715426
7.15400e-06	-0.0016883128683881313
7.15425e-06	-0.0016881067550608368
7.15450e-06	-0.0016862592094452128
7.15475e-06	-0.0016724659263030633
7.15500e-06	-0.0016586726431609138
7.15525e-06	-0.0016448793600187177
7.15550e-06	-0.0016310860768765682
7.15575e-06	-0.0016172927937344187
7.15600e-06	-0.0016034995105922226
7.15625e-06	-0.001589706227450073
7.15650e-06	-0.001575912944307877
7.15675e-06	-0.0015621196611657275
7.15700e-06	-0.001547633015934625
7.15725e-06	-0.0015281003376848676
7.15750e-06	-0.0015085676594351763
7.15775e-06	-0.001489034981185485
7.15800e-06	-0.0014695023029357276
7.15825e-06	-0.0014499696246860366
7.15850e-06	-0.0014304369464363453
7.15875e-06	-0.001411157439520592
7.15900e-06	-0.0013937204200021485
7.15925e-06	-0.001376283400483705
7.15950e-06	-0.0013588463809652025
7.15975e-06	-0.0013414093614467588
7.16000e-06	-0.0013239723419283154
7.16025e-06	-0.0013065353224098128
7.16050e-06	-0.0012896763249658368
7.16075e-06	-0.0012770239585436771
7.16100e-06	-0.00126498082856809
7.16125e-06	-0.0012573714962773016
7.16150e-06	-0.0012497621639864871
7.16175e-06	-0.0012431017522223353
7.16200e-06	-0.001243347233330961
7.16225e-06	-0.0012435927144395875
7.16250e-06	-0.0012447893803541334
7.16275e-06	-0.0012529084177289875
7.16300e-06	-0.0012610274551038692
7.16325e-06	-0.0012701683012329285
7.16350e-06	-0.0012867454938151185
7.16375e-06	-0.0013033226863973647
7.16400e-06	-0.0013208804244086915
7.16425e-06	-0.0013455742096439773
7.16450e-06	-0.0013702679948793465
7.16475e-06	-0.0013958129756612577
7.16500e-06	-0.001427552643029797
7.16525e-06	-0.001459292310398229
7.16550e-06	-0.001492121917562302
7.16575e-06	-0.001532883703717259
7.16600e-06	-0.0015736454898720778
7.16625e-06	-0.0016144072760268969
7.16650e-06	-0.0016551690621818538
7.16675e-06	-0.0016959308483366728
7.16700e-06	-0.0017366926344914916
7.16725e-06	-0.0017811305720146953
7.16750e-06	-0.0018278139220195362
7.16775e-06	-0.0018744972720243773
7.16800e-06	-0.0019211806220293766
7.16825e-06	-0.0019678639720342177
7.16850e-06	-0.002014547322039059
7.16875e-06	-0.002060779611419329
7.16900e-06	-0.002103729248285268
7.16925e-06	-0.002146678885151353
7.16950e-06	-0.0021896285220172926
7.16975e-06	-0.002232578158883232
7.17000e-06	-0.002275527795749317
7.17025e-06	-0.0023184774326152563
7.17050e-06	-0.0023595597322402483
7.17075e-06	-0.0023870522415969085
7.17100e-06	-0.0024145447509534754
7.17125e-06	-0.002442037260310042
7.17150e-06	-0.002469529769666702
7.17175e-06	-0.0024970222790232687
7.17200e-06	-0.0025245147883798356
7.17225e-06	-0.0025501145544918626
7.17250e-06	-0.00256193963483197
7.17275e-06	-0.0025737647151720775
7.17300e-06	-0.00258438969937778
7.17325e-06	-0.0025862808274757514
7.17350e-06	-0.002588171955573729
7.17375e-06	-0.002588072793923715
7.17400e-06	-0.0025734890391048283
7.17425e-06	-0.0025589052842858923
7.17450e-06	-0.002544321529467006
7.17475e-06	-0.0025297377746481193
7.17500e-06	-0.0025151540198291833
7.17525e-06	-0.002500570265010297
7.17550e-06	-0.0024859865101914103
7.17575e-06	-0.002469345147851901
7.17600e-06	-0.002437729278476955
7.17625e-06	-0.0024061134091020093
7.17650e-06	-0.0023744975397269564
7.17675e-06	-0.0023428816703520107
7.17700e-06	-0.002311265800977065
7.17725e-06	-0.002279649931602012
7.17750e-06	-0.0022480340622270663
7.17775e-06	-0.0022158330949237754
7.17800e-06	-0.00217937400115361
7.17825e-06	-0.0021429149073834454
7.17850e-06	-0.0021064558136131566
7.17875e-06	-0.002069996719842992
7.17900e-06	-0.0020335376260728266
7.17925e-06	-0.001997078532302538
7.17950e-06	-0.0019648494676137735
7.17975e-06	-0.0019352041268100573
7.18000e-06	-0.0019055587860062405
7.18025e-06	-0.0018759134452025243
7.18050e-06	-0.0018462681043988078
7.18075e-06	-0.001816622763594991
7.18100e-06	-0.001788891865819901
7.18125e-06	-0.0017750935768189129
7.18150e-06	-0.0017612952878178782
7.18175e-06	-0.0017474969988168902
7.18200e-06	-0.0017336987098158555
7.18225e-06	-0.0017199004208148674
7.18250e-06	-0.0017061021318138794
7.18275e-06	-0.0016923038428128447
7.18300e-06	-0.0016785055538118567
7.18325e-06	-0.0016647072648108686
7.18350e-06	-0.0016527496140449933
7.18375e-06	-0.0016541874480433454
7.18400e-06	-0.0016556252820416977
7.18425e-06	-0.0016570631160400548
7.18450e-06	-0.0016585009500384071
7.18475e-06	-0.0016599387840367595
7.18500e-06	-0.0016613766180351166
7.18525e-06	-0.001662814452033469
7.18550e-06	-0.0016642522860318212
7.18575e-06	-0.0016656901200301783
7.18600e-06	-0.0016682038506177243
7.18625e-06	-0.0016785475589226548
7.18650e-06	-0.0016888912672275499
7.18675e-06	-0.0016992349755324452
7.18700e-06	-0.0017095786838373756
7.18725e-06	-0.001719922392142271
7.18750e-06	-0.0017302661004471663
7.18775e-06	-0.0017406098087520965
7.18800e-06	-0.0017509535170569918
7.18825e-06	-0.0017615599489499048
7.18850e-06	-0.00177407838601182
7.18875e-06	-0.0017865968230736929
7.18900e-06	-0.0017991152601355654
7.18925e-06	-0.0018116336971974807
7.18950e-06	-0.0018241521342593535
7.18975e-06	-0.001836670571321226
7.19000e-06	-0.0018491890083831414
7.19025e-06	-0.001861707445445014
7.19050e-06	-0.0018730935662977202
7.19075e-06	-0.0018762391082934836
7.19100e-06	-0.001879384650289247
7.19125e-06	-0.001882530192285021
7.19150e-06	-0.0018856757342807842
7.19175e-06	-0.0018888212762765476
7.19200e-06	-0.0018919668182723218
7.19225e-06	-0.0018951123602680851
7.19250e-06	-0.0018982579022638485
7.19275e-06	-0.0019014034442596224
7.19300e-06	-0.0019045489862553858
7.19325e-06	-0.0019076945282511491
7.19350e-06	-0.001910840070246923
7.19375e-06	-0.001901275285861936
7.19400e-06	-0.0018839469676534776
7.19425e-06	-0.0018666186494449605
7.19450e-06	-0.001849290331236502
7.19475e-06	-0.0018319620130279849
