Time(s)	Current(A)
7.00000e-06	0.002185567900854047
7.00025e-06	0.0022377974021610576
7.00050e-06	0.002293169862852185
7.00075e-06	0.0023600020364681054
7.00100e-06	0.0024268342100837994
7.00125e-06	0.002497270270035874
7.00150e-06	0.0025808466534157555
7.00175e-06	0.002664423036795354
7.00200e-06	0.0027479994201749527
7.00225e-06	0.002831575803554834
7.00250e-06	0.0029151521869344326
7.00275e-06	0.0030008203686914953
7.00300e-06	0.0030941155687984937
7.00325e-06	0.003187410768905492
7.00350e-06	0.0032807059690128063
7.00375e-06	0.0033740011691198047
7.00400e-06	0.0034672963692268027
7.00425e-06	0.0035589220360709713
7.00450e-06	0.003644460328064212
7.00475e-06	0.0037299986200574524
7.00500e-06	0.003815536912050983
7.00525e-06	0.0039010752040442233
7.00550e-06	0.003986613496037464
7.00575e-06	0.004066064540496382
7.00600e-06	0.004123320544959022
7.00625e-06	0.004180576549421661
7.00650e-06	0.004237832553884495
7.00675e-06	0.004295088558347134
7.00700e-06	0.004352344562809968
7.00725e-06	0.004402341128551988
7.00750e-06	0.004425868665093212
7.00775e-06	0.004449396201634515
7.00800e-06	0.004467675450023126
7.00825e-06	0.00446681863325448
7.00850e-06	0.004465961816485831
7.00875e-06	0.004459694781186845
7.00900e-06	0.0044337012576884695
7.00925e-06	0.004407707734190005
7.00950e-06	0.004376670214731819
7.00975e-06	0.004327241510847535
7.01000e-06	0.004277812806963084
7.01025e-06	0.004223894986764545
7.01050e-06	0.004153609158601319
7.01075e-06	0.004083323330437854
7.01100e-06	0.0040091708507419025
7.01125e-06	0.003920919965334474
7.01150e-06	0.003832669079927344
7.01175e-06	0.003740688158930698
7.01200e-06	0.0036351069549467193
7.01225e-06	0.003529525750963098
7.01250e-06	0.003423944546979477
7.01275e-06	0.003318363342995498
7.01300e-06	0.0032127821390118766
7.01325e-06	0.0031013770614748007
7.01350e-06	0.00298765321955531
7.01375e-06	0.0028739293776362048
7.01400e-06	0.002760205535717099
7.01425e-06	0.0026464816937976088
7.01450e-06	0.002534117514901613
7.01475e-06	0.0024267108763389336
7.01500e-06	0.0023193042377758905
7.01525e-06	0.0022139837599282263
7.01550e-06	0.0021162697446452045
7.01575e-06	0.002020974750213032
7.01600e-06	0.0019344998775531399
7.01625e-06	0.0018509592580040978
7.01650e-06	0.001778117376229732
7.01675e-06	0.0017080151730336298
7.01700e-06	0.0016479022589629391
7.01725e-06	0.001590471506782815
7.01750e-06	0.001542820329044953
7.01775e-06	0.0014980704554115659
7.01800e-06	0.0014638991824110275
7.01825e-06	0.0014327715081223309
7.01850e-06	0.0014127412624717034
7.01875e-06	0.0013954523115295183
7.01900e-06	0.0013881585423710953
7.01925e-06	0.001383389631784936
7.01950e-06	0.0013878267435687088
7.01975e-06	0.0013947455670127592
7.02000e-06	0.0014107130925545416
7.02025e-06	0.0014290710873173962
7.02050e-06	0.0014561451002228472
7.02075e-06	0.0014852398143151613
7.02100e-06	0.0015217023154722364
7.02125e-06	0.001560252560066356
7.02150e-06	0.0016064150380712486
7.02175e-06	0.0016525775160761411
7.02200e-06	0.001700810803649732
7.02225e-06	0.0017565945811474407
7.02250e-06	0.0018123783586451495
7.02275e-06	0.001869665729265298
7.02300e-06	0.0019324354314776944
7.02325e-06	0.0019952051336900906
7.02350e-06	0.0020579748359026997
7.02375e-06	0.0021207445381150962
7.02400e-06	0.0021835142403277053
7.02425e-06	0.0022451359296172917
7.02450e-06	0.0023063005397051446
7.02475e-06	0.0023674651497932043
7.02500e-06	0.0024286297598810572
7.02525e-06	0.0024897943699689097
7.02550e-06	0.002548751521895859
7.02575e-06	0.0025996599421307777
7.02600e-06	0.0026505683623656963
7.02625e-06	0.002698965725861667
7.02650e-06	0.002738207390594163
7.02675e-06	0.0027774490553266586
7.02700e-06	0.00281413290830391
7.02725e-06	0.0028414905865434543
7.02750e-06	0.0028688482647829983
7.02775e-06	0.0028934767630244937
7.02800e-06	0.0029081542515800043
7.02825e-06	0.002922831740135565
7.02850e-06	0.0029347519522522764
7.02875e-06	0.002936618710742879
7.02900e-06	0.0029384854692334874
7.02925e-06	0.002937869133791939
7.02950e-06	0.0029281990562792775
7.02975e-06	0.002918528978766583
7.03000e-06	0.0029052338709953853
7.03025e-06	0.0028787213458179575
7.03050e-06	0.00285220882064044
7.03075e-06	0.002825696295463012
7.03100e-06	0.0027991837702855847
7.03125e-06	0.002772671245108067
7.03150e-06	0.0027461587199306393
7.03175e-06	0.002716341593732976
7.03200e-06	0.0026744753843748574
7.03225e-06	0.0026326091750168805
7.03250e-06	0.0025907429656587613
7.03275e-06	0.0025488767563007844
7.03300e-06	0.0025070105469428075
7.03325e-06	0.0024651443375846888
7.03350e-06	0.0024225480467273894
7.03375e-06	0.002377289766527127
7.03400e-06	0.0023320314863267107
7.03425e-06	0.0022867732061264477
7.03450e-06	0.0022415149259261847
7.03475e-06	0.0021962566457257686
7.03500e-06	0.0021527264135528536
7.03525e-06	0.0021154969100479217
7.03550e-06	0.0020782674065428636
7.03575e-06	0.0020410379030379316
7.03600e-06	0.0020038083995329997
7.03625e-06	0.001966578896027942
7.03650e-06	0.0019324549762937838
7.03675e-06	0.0019096544922423996
7.03700e-06	0.0018868540081910926
7.03725e-06	0.001866597504829833
7.03750e-06	0.001855616746013792
7.03775e-06	0.0018466723109753342
7.03800e-06	0.0018451526253642054
7.03825e-06	0.0018456876673674236
7.03850e-06	0.0018537145620150517
7.03875e-06	0.00186395826081641
7.03900e-06	0.0018822847682320946
7.03925e-06	0.0019032635955113448
7.03950e-06	0.0019339131886112965
7.03975e-06	0.001964562781711352
7.04000e-06	0.0019980163728586567
7.04025e-06	0.002041693771793617
7.04050e-06	0.0020853711707287254
7.04075e-06	0.0021315700832239474
7.04100e-06	0.0021869628216558273
7.04125e-06	0.0022423555600875195
7.04150e-06	0.002300400889825985
7.04175e-06	0.002368117975108222
7.04200e-06	0.00243583506039023
7.04225e-06	0.0025035521456722378
7.04250e-06	0.002571269230954475
7.04275e-06	0.002638986316236483
7.04300e-06	0.002708006979479144
7.04325e-06	0.00278178068829477
7.04350e-06	0.0028555543971101457
7.04375e-06	0.0029293281059255215
7.04400e-06	0.0030031018147411476
7.04425e-06	0.0030768755235565234
7.04450e-06	0.003148835951235823
7.04475e-06	0.003214184877236342
7.04500e-06	0.003279533803236639
7.04525e-06	0.003344882729237157
7.04550e-06	0.0034102316552374543
7.04575e-06	0.0034755805812377513
7.04600e-06	0.00353532866053432
7.04625e-06	0.003574655192036428
7.04650e-06	0.0036139817235385356
7.04675e-06	0.0036533082550407768
7.04700e-06	0.0036926347865428844
7.04725e-06	0.003731961318044992
7.04750e-06	0.0037649296099996634
7.04775e-06	0.0037747147834605046
7.04800e-06	0.0037844999569213457
7.04825e-06	0.0037897918213134966
7.04850e-06	0.0037787003903315425
7.04875e-06	0.003767608959349589
7.04900e-06	0.0037519068723930907
7.04925e-06	0.0037193936252111186
7.04950e-06	0.0036868803780290365
7.04975e-06	0.0036502137018480313
7.05000e-06	0.0035984029852587393
7.05025e-06	0.003546592268669272
7.05050e-06	0.0034910878723885
7.05075e-06	0.003422115752326983
7.05100e-06	0.0033531436322652326
7.05125e-06	0.0032801595053977856
7.05150e-06	0.003192546985171735
7.05175e-06	0.003104934464945388
7.05200e-06	0.0030173219447193374
7.05225e-06	0.0029297094244932873
7.05250e-06	0.00284209690426694
7.05275e-06	0.0027456766033866482
7.05300e-06	0.002645749501086425
7.05325e-06	0.0025458223987858634
7.05350e-06	0.0024458952964856403
7.05375e-06	0.002345968194185079
7.05400e-06	0.0022465761811202626
7.05425e-06	0.002149135185637291
7.05450e-06	0.002051694190153989
7.05475e-06	0.0019542531946710176
7.05500e-06	0.001856812199188046
7.05525e-06	0.0017701705551891858
7.05550e-06	0.0016878286528173069
7.05575e-06	0.0016054867504454282
7.05600e-06	0.0015231448480732702
7.05625e-06	0.0014445686301785344
7.05650e-06	0.0013797226765761906
7.05675e-06	0.0013164848474754155
7.05700e-06	0.0012591104874355853
7.05725e-06	0.001203055829072229
7.05750e-06	0.0011518130058251889
7.05775e-06	0.0011021991914885196
7.05800e-06	0.0010585249939749095
7.05825e-06	0.0010166477764004126
7.05850e-06	0.000981322623833756
7.05875e-06	0.0009472203993307006
7.05900e-06	0.0009175771584802818
7.05925e-06	0.0008889383674705406
7.05950e-06	0.0008639619549376048
7.05975e-06	0.0008401458924121762
7.06000e-06	0.0008205606443293
7.06025e-06	0.000802203097531229
7.06050e-06	0.0007883219382833985
7.06075e-06	0.0007752710438900869
7.06100e-06	0.0007652474227462798
7.06125e-06	0.0007560556679708589
7.06150e-06	0.0007498970258104632
7.06175e-06	0.0007437383836500465
7.06200e-06	0.000738661233123653
7.06225e-06	0.0007375273672916124
7.06250e-06	0.0007363935014595678
7.06275e-06	0.0007359421269017728
7.06300e-06	0.0007379792204107682
7.06325e-06	0.0007400163139197569
7.06350e-06	0.0007426257030870084
7.06375e-06	0.0007473217701709885
7.06400e-06	0.0007520178372549528
7.06425e-06	0.0007567139043389169
7.06450e-06	0.0007614099714228971
7.06475e-06	0.0007661060385068612
7.06500e-06	0.0007711334052375314
7.06525e-06	0.0007762926783038544
7.06550e-06	0.0007814519513701599
7.06575e-06	0.0007866112244364655
7.06600e-06	0.0007917704975027884
7.06625e-06	0.000795882174195789
7.06650e-06	0.0007961741535242077
7.06675e-06	0.0007964661328526276
7.06700e-06	0.0007967581121810463
7.06725e-06	0.0007970500915094661
7.06750e-06	0.0007973420708378849
7.06775e-06	0.0007976340501663036
7.06800e-06	0.0007979260294947234
7.06825e-06	0.0007982180088231421
7.06850e-06	0.0007985099881515609
7.06875e-06	0.0007988019674799807
7.06900e-06	0.0007990939468083994
7.06925e-06	0.00079765751374811
7.06950e-06	0.0007899190235083668
7.06975e-06	0.0007821805332686498
7.07000e-06	0.0007744420430289327
7.07025e-06	0.0007667035527891894
7.07050e-06	0.0007589650625494723
7.07075e-06	0.0007512265723097553
7.07100e-06	0.000743488082070012
7.07125e-06	0.0007357495918302949
7.07150e-06	0.0007280111015905516
7.07175e-06	0.0007202726113508345
7.07200e-06	0.0007125341211111175
7.07225e-06	0.0007040129689194754
7.07250e-06	0.000692638110977567
7.07275e-06	0.0006812632530356585
7.07300e-06	0.0006698883950937114
7.07325e-06	0.000658513537151803
7.07350e-06	0.0006471386792098945
7.07375e-06	0.0006357638212679474
7.07400e-06	0.0006245279361867443
7.07425e-06	0.0006137987675119687
7.07450e-06	0.0006030695988371569
7.07475e-06	0.0005923404301623814
7.07500e-06	0.0005816112614876059
7.07525e-06	0.0005708820928127939
7.07550e-06	0.0005601529241380185
7.07575e-06	0.0005503682232573826
7.07600e-06	0.0005440271970927923
7.07625e-06	0.0005376861709282019
7.07650e-06	0.0005313451447635902
7.07675e-06	0.0005250041185989999
7.07700e-06	0.0005186630924344097
7.07725e-06	0.0005123220662697979
7.07750e-06	0.0005059810401052075
7.07775e-06	0.0004996400139406173
7.07800e-06	0.0004932989877760055
7.07825e-06	0.0004869579616114152
7.07850e-06	0.0004841930701138508
7.07875e-06	0.0004828520099550938
7.07900e-06	0.00048151094979634134
7.07925e-06	0.0004801698896375889
7.07950e-06	0.00047882882947883186
7.07975e-06	0.0004774877693200794
7.08000e-06	0.0004761467091613224
7.08025e-06	0.00047480564900256986
7.08050e-06	0.0004734645888438174
7.08075e-06	0.0004721235286850604
7.08100e-06	0.0004714438918452533
7.08125e-06	0.00047317590606835863
7.08150e-06	0.0004749079202914699
7.08175e-06	0.00047663993451457526
7.08200e-06	0.00047837194873768065
7.08225e-06	0.0004801039629607919
7.08250e-06	0.0004818359771838973
7.08275e-06	0.0004835679914070027
7.08300e-06	0.0004853000056301139
7.08325e-06	0.00048723696350977055
7.08350e-06	0.0004899211774552057
7.08375e-06	0.00049260539140065
7.08400e-06	0.0004952896053460851
7.08425e-06	0.0004979738192915293
7.08450e-06	0.0005006580332369645
7.08475e-06	0.0005033422471823996
7.08500e-06	0.0005060264611278439
7.08525e-06	0.0005087106750732791
7.08550e-06	0.0005113176850556081
7.08575e-06	0.0005136431975244309
7.08600e-06	0.0005159166054614389
7.08625e-06	0.000518027230859174
7.08650e-06	0.0005206446545700949
7.08675e-06	0.000525726762975685
7.08700e-06	0.0005356002039673801
7.08725e-06	0.0005511140519130465
7.08750e-06	0.0005720291656480051
7.08775e-06	0.0005980139943357416
7.08800e-06	0.0006287369996679479
7.08825e-06	0.0006639090466548519
7.08850e-06	0.0007035940513634272
7.08875e-06	0.000748699292561
7.08900e-06	0.0008003629194748813
7.08925e-06	0.0008587974812270345
7.08950e-06	0.0009235337959293609
7.08975e-06	0.0009940448890045617
7.09000e-06	0.0010702807063155558
7.09025e-06	0.0011520489075139847
7.09050e-06	0.0012358368076513327
7.09075e-06	0.0013269888404889131
7.09100e-06	0.0014202595696227657
7.09125e-06	0.0015212553910354185
7.09150e-06	0.0016241806252627023
7.09175e-06	0.001734140795104548
7.09200e-06	0.001844100964946394
7.09225e-06	0.0019557352082527403
7.09250e-06	0.002073473380664659
7.09275e-06	0.0021912115530769763
7.09300e-06	0.002308949725488895
7.09325e-06	0.0024266878979008135
7.09350e-06	0.0025442834098840152
7.09375e-06	0.00266135876001958
7.09400e-06	0.0027784341101551448
7.09425e-06	0.002895509460291106
7.09450e-06	0.003012584810426671
7.09475e-06	0.0031273253597070873
7.09500e-06	0.0032335528662804486
7.09525e-06	0.0033397803728534505
7.09550e-06	0.0034427616547585732
7.09575e-06	0.003533906702676844
7.09600e-06	0.003625051750594806
7.09625e-06	0.0037117330224399484
7.09650e-06	0.0037821386807746805
7.09675e-06	0.003852544339109174
7.09700e-06	0.003918474946045474
7.09725e-06	0.003968088827901677
7.09750e-06	0.00401770270975788
7.09775e-06	0.004062535285671739
7.09800e-06	0.004089934485376067
7.09825e-06	0.004117333685080397
7.09850e-06	0.004139911655837966
7.09875e-06	0.004144910684977644
7.09900e-06	0.004149909714117321
7.09925e-06	0.004150592882749858
7.09950e-06	0.004135539760755919
7.09975e-06	0.0041204866387619795
7.10000e-06	0.004101356292260323
7.10025e-06	0.004067359758657847
7.10050e-06	0.004033363225055371
7.10075e-06	0.003994353061122796
7.10100e-06	0.0039370624305644485
7.10125e-06	0.003879771800005907
7.10150e-06	0.0038224811694475597
7.10175e-06	0.0037651905388892126
7.10200e-06	0.003707899908330671
7.10225e-06	0.0036506092777723233
7.10250e-06	0.0035802600945375384
7.10275e-06	0.0035047116729457423
7.10300e-06	0.0034291632513542025
7.10325e-06	0.003353614829762662
7.10350e-06	0.0032780664081708665
7.10375e-06	0.0032025179865793263
7.10400e-06	0.0031270051813492307
7.10425e-06	0.0030516222388458497
7.10450e-06	0.002976239296342724
7.10475e-06	0.0029008563538395985
7.10500e-06	0.0028254734113362175
7.10525e-06	0.002750090468833092
7.10550e-06	0.0026868323909574957
7.10575e-06	0.002628401805285923
7.10600e-06	0.00256997121961435
7.10625e-06	0.002511540633942579
7.10650e-06	0.002453110048271006
7.10675e-06	0.0023989293810556386
7.10700e-06	0.002360244569612417
7.10725e-06	0.00232418059482261
7.10750e-06	0.002297672593211973
7.10775e-06	0.0022738528797571884
7.10800e-06	0.0022598350780253635
7.10825e-06	0.002248573291571165
7.10850e-06	0.002247360360333046
7.10875e-06	0.0022489180271268814
7.10900e-06	0.00226057772009978
7.10925e-06	0.0022748780942989607
7.10950e-06	0.0022988067980392
7.10975e-06	0.0023257868053033317
7.11000e-06	0.0023638923341050113
7.11025e-06	0.002401997862906691
7.11050e-06	0.002443400564144465
7.11075e-06	0.002496825262755566
7.11100e-06	0.0025502499613666665
7.11125e-06	0.002606370982847514
7.11150e-06	0.002672323211850626
7.11175e-06	0.0027382754408537373
7.11200e-06	0.0028068154071663035
7.11225e-06	0.0028847906613617353
7.11250e-06	0.002962765915557167
7.11275e-06	0.0030407411697528633
7.11300e-06	0.003118716423948295
7.11325e-06	0.0031966916781437267
7.11350e-06	0.0032752828240252972
7.11375e-06	0.003356119605636342
7.11400e-06	0.003436956387247661
7.11425e-06	0.0035177931688587065
7.11450e-06	0.003598629950469752
7.11475e-06	0.003679466732081071
7.11500e-06	0.0037570501563354308
7.11525e-06	0.0038227713397298232
7.11550e-06	0.003888492523124438
7.11575e-06	0.00395421370651883
7.11600e-06	0.004019934889913223
7.11625e-06	0.004085656073307838
7.11650e-06	0.004143348272824176
7.11675e-06	0.00417176556332299
7.11700e-06	0.004200182853821899
7.11725e-06	0.0042286001443207115
7.11750e-06	0.004257017434819525
7.11775e-06	0.004285434725318434
7.11800e-06	0.004305980001173768
7.11825e-06	0.004297822701963112
7.11850e-06	0.004289665402752485
7.11875e-06	0.004275945977131812
7.11900e-06	0.004241946183900209
7.11925e-06	0.004207946390668722
7.11950e-06	0.004168728443623002
7.11975e-06	0.004110484305908498
7.12000e-06	0.004052240168194192
7.12025e-06	0.003989411800520203
7.12050e-06	0.003909868625965029
7.12075e-06	0.003830325451410125
7.12100e-06	0.0037467529933592064
7.12125e-06	0.003648489148511194
7.12150e-06	0.003550225303663515
7.12175e-06	0.0034482969479679485
7.12200e-06	0.0033330072226043033
7.12225e-06	0.003217717497241049
7.12250e-06	0.0031024277718774036
7.12275e-06	0.0029871380465141487
7.12300e-06	0.0028699337809071795
7.12325e-06	0.002745748807368837
7.12350e-06	0.0026215638338309153
7.12375e-06	0.0024973788602929933
7.12400e-06	0.0023731938867546506
7.12425e-06	0.0022499919077848935
7.12450e-06	0.0021303740780647144
7.12475e-06	0.00201075624834413
7.12500e-06	0.0018929973523033308
7.12525e-06	0.0017820164141145991
7.12550e-06	0.0016733141941485336
7.12575e-06	0.0015729205309880307
7.12600e-06	0.0014746744414871088
7.12625e-06	0.0013864751012332638
7.12650e-06	0.00130635697080641
7.12675e-06	0.0012277507487728212
7.12700e-06	0.0011546571770726655
7.12725e-06	0.0010825829824928261
7.12750e-06	0.001014225593537985
7.12775e-06	0.0009473354376317577
7.12800e-06	0.0008857950388850286
7.12825e-06	0.0008259532052809237
7.12850e-06	0.0007723046012008427
7.12875e-06	0.0007194700255078445
7.12900e-06	0.0006696035224031079
7.12925e-06	0.0006202661390029664
7.12950e-06	0.0005728580073532487
7.12975e-06	0.0005262831253883876
7.13000e-06	0.00048274639981793987
7.13025e-06	0.0004402113710311128
7.13050e-06	0.0004013286826446153
7.13075e-06	0.0003628611642705742
7.13100e-06	0.0003260195025584405
7.13125e-06	0.0002897417425969663
7.13150e-06	0.00025424024077452465
7.13175e-06	0.00021977068142115094
7.13200e-06	0.00018658865953195887
7.13225e-06	0.00015492923980597542
7.13250e-06	0.000124852956086445
7.13275e-06	9.598649418809116e-05
7.13300e-06	6.778650299431493e-05
7.13325e-06	4.010293050664193e-05
7.13350e-06	1.3096298649459558e-05
7.13375e-06	-1.3045724531384902e-05
7.13400e-06	-3.81355471105219e-05
7.13425e-06	-6.199846908760108e-05
7.13450e-06	-8.4569104825081e-05
7.13475e-06	-0.00010605384263262747
7.13500e-06	-0.0001267655493600349
7.13525e-06	-0.00014677071140510364
7.13550e-06	-0.0001659412566388166
7.13575e-06	-0.00018413214409838523
7.13600e-06	-0.00020119838789663317
7.13625e-06	-0.00021692966144230683
7.13650e-06	-0.00023057394906568049
7.13675e-06	-0.00024009967122229193
7.13700e-06	-0.00024316810332876648
7.13725e-06	-0.00023891481624126805
7.13750e-06	-0.00022754360678691685
7.13775e-06	-0.00020934823963432992
7.13800e-06	-0.00018462246085253263
7.13825e-06	-0.00015361911912208532
7.13850e-06	-0.00011625175223182109
7.13875e-06	-7.163245108560059e-05
7.13900e-06	-1.868098678914579e-05
7.13925e-06	4.275926120323573e-05
7.13950e-06	0.00011217579385564468
7.13975e-06	0.00018899980047227237
7.14000e-06	0.0002726624887767999
7.14025e-06	0.00036262072311065406
7.14050e-06	0.00045854394766461806
7.14075e-06	0.0005606036296825513
7.14100e-06	0.0006690916361526407
7.14125e-06	0.0007837212975199915
7.14150e-06	0.0009042294602434066
7.14175e-06	0.001030161152553511
7.14200e-06	0.0011578209012467371
7.14225e-06	0.001291781409056853
7.14250e-06	0.0014257419168674226
7.14275e-06	0.0015611180543201105
7.14300e-06	0.0017016557949828042
7.14325e-06	0.0018421935356459744
7.14350e-06	0.0019827312763086684
7.14375e-06	0.0021226507282348706
7.14400e-06	0.0022603158044161636
7.14425e-06	0.002397980880597456
7.14450e-06	0.002535645956779215
7.14475e-06	0.002670788867931161
7.14500e-06	0.002796735577817354
7.14525e-06	0.002922682287703974
7.14550e-06	0.0030447867675656667
7.14575e-06	0.0031528818863416305
7.14600e-06	0.0032609770051179607
7.14625e-06	0.003364128653709552
7.14650e-06	0.0034492556503707777
7.14675e-06	0.003534382647032292
7.14700e-06	0.003615775737270611
7.14725e-06	0.003683554430920708
7.14750e-06	0.0037430435270663265
7.14775e-06	-0.0038100720811367296
