Time(s)	Current(A)
1.12500e-05	-0.0009687733561273693
1.12503e-05	-0.0009377095409751948
1.12505e-05	-0.0009073384812221354
1.12508e-05	-0.0008778236675896863
1.12510e-05	-0.000849361884938737
1.12513e-05	-0.0008221611815190349
1.12515e-05	-0.0007972097403093423
1.12518e-05	-0.0007724455820120121
1.12520e-05	-0.0007510321994202742
1.12523e-05	-0.0007299111422041962
1.12525e-05	-0.0007108503505577457
1.12527e-05	-0.0006938357781192674
1.12530e-05	-0.0006769840394031022
1.12533e-05	-0.0006601323006869371
1.12535e-05	-0.0006466548225872572
1.12538e-05	-0.0006334717187129314
1.12540e-05	-0.0006202886148386057
1.12542e-05	-0.0006101426935097834
1.12545e-05	-0.0006002617393429091
1.12548e-05	-0.0005923797954591475
1.12550e-05	-0.0005846722474418444
1.12553e-05	-0.0005769646994245935
1.12555e-05	-0.0005708687052731508
1.12558e-05	-0.0005662623845099432
1.12560e-05	-0.0005617737589462924
1.12563e-05	-0.0005589551675321473
1.12565e-05	-0.0005562822717430009
1.12568e-05	-0.0005547133095360691
1.12570e-05	-0.0005532406557149533
1.12573e-05	-0.0005527835726061455
1.12575e-05	-0.000552415089008734
1.12578e-05	-0.0005531117246459527
1.12580e-05	-0.0005539012824624162
1.12583e-05	-0.000555626560509229
1.12585e-05	-0.0005574334718231415
1.12588e-05	-0.0005597532678954208
1.12590e-05	-0.0005621178086008622
1.12593e-05	-0.0005648718579764146
1.12595e-05	-0.0005676598885188479
1.12598e-05	-0.0005708002998002558
1.12600e-05	-0.0005739714531668215
1.12603e-05	-0.000577345833103612
1.12605e-05	-0.0005807379427509822
1.12608e-05	-0.0005840004124774598
1.12610e-05	-0.0005872515722739511
1.12612e-05	-0.0005903077769715103
1.12615e-05	-0.0005931868443106341
1.12618e-05	-0.0005958691128347608
1.12620e-05	-0.0005983468201974878
1.12623e-05	-0.0006009970051144578
1.12625e-05	-0.000604711927753674
1.12627e-05	-0.0006101519302920598
1.12630e-05	-0.0006174098402798766
1.12633e-05	-0.0006263766588947945
1.12635e-05	-0.0006369297566071582
1.12638e-05	-0.0006489466504864343
1.12640e-05	-0.0006623153113352891
1.12643e-05	-0.0006771648413877031
1.12645e-05	-0.000693946927626854
1.12648e-05	-0.0007129680922536276
1.12650e-05	-0.0007341792948493114
1.12653e-05	-0.000757405039033257
1.12655e-05	-0.0007824613350602514
1.12658e-05	-0.0008098334014032747
1.12660e-05	-0.0008373947870532756
1.12663e-05	-0.0008677031845398449
1.12665e-05	-0.0008982512343753331
1.12668e-05	-0.0009311232464268992
1.12670e-05	-0.0009656264785760545
1.12673e-05	-0.001001478296074744
1.12675e-05	-0.0010384563456580275
1.12678e-05	-0.0010766454160093652
1.12680e-05	-0.001114932378090112
1.12683e-05	-0.0011542952738854248
1.12685e-05	-0.0011937520353275497
1.12688e-05	-0.0012339346518378737
1.12690e-05	-0.001274457486271446
1.12693e-05	-0.0013150548020117515
1.12695e-05	-0.0013554800500894073
1.12697e-05	-0.0013954868770006377
1.12700e-05	-0.001434831517702498
1.12703e-05	-0.0014733297503719547
1.12705e-05	-0.0015108761951986322
1.12708e-05	-0.001547330140275204
1.12710e-05	-0.0015824632845375182
1.12712e-05	-0.001616016232932145
1.12715e-05	-0.0016477279449429757
1.12718e-05	-0.001677336989121988
1.12720e-05	-0.0017045829673969814
1.12723e-05	-0.00172923919636374
1.12725e-05	-0.0017511648010982653
1.12728e-05	-0.0017702939146923375
1.12730e-05	-0.0017852457711599048
1.12733e-05	-0.0017998528090431567
1.12735e-05	-0.0018104146423906626
1.12738e-05	-0.0018164627230999294
1.12740e-05	-0.001822147807133706
1.12743e-05	-0.0018222004207325423
1.12745e-05	-0.001821761651384578
1.12748e-05	-0.0018158620513234992
1.12750e-05	-0.0018094860423546772
1.12753e-05	-0.0017979501878618448
1.12755e-05	-0.0017859641827418248
1.12758e-05	-0.0017691191031387026
1.12760e-05	-0.0017518501125066731
1.12763e-05	-0.0017300664511127326
1.12765e-05	-0.0017078889248510751
1.12768e-05	-0.0016817209088996743
1.12770e-05	-0.0016552047582165097
1.12773e-05	-0.0016253033004434295
1.12775e-05	-0.0015951065047379283
1.12778e-05	-0.0015621293168571495
1.12780e-05	-0.0015289095644895638
1.12782e-05	-0.001493541745821906
1.12785e-05	-0.001457986527475489
1.12788e-05	-0.0014210278358578238
1.12790e-05	-0.0013839467036808116
1.12793e-05	-0.0013463102318795714
1.12795e-05	-0.0013085200578324386
1.12797e-05	-0.0012708142840578455
1.12800e-05	-0.0012334089867338494
1.12803e-05	-0.001196525586401131
1.12805e-05	-0.0011603988195505648
1.12808e-05	-0.001125274608586263
1.12810e-05	-0.0010914018954712613
1.12813e-05	-0.0010598421799049632
1.12815e-05	-0.0010284753520074484
1.12818e-05	-0.0010008091107758415
1.12820e-05	-0.0009734657128157747
1.12823e-05	-0.0009490165802960666
1.12825e-05	-0.0009259215246452706
1.12828e-05	-0.0009037594627435001
1.12830e-05	-0.0008816704121265807
1.12833e-05	-0.0008609963987794227
1.12835e-05	-0.0008404458348479576
1.12838e-05	-0.0008219173110455288
1.12840e-05	-0.0008035651922591044
1.12843e-05	-0.0007868290887574573
1.12845e-05	-0.0007708061720045735
1.12848e-05	-0.0007553609608412566
1.12850e-05	-0.0007399617943031869
1.12853e-05	-0.0007245626277652216
1.12855e-05	-0.0007105461442845504
1.12858e-05	-0.0006966502876023392
1.12860e-05	-0.0006827544309202222
1.12863e-05	-0.0006702560781301844
1.12865e-05	-0.000657879645124628
1.12867e-05	-0.0006459540563811593
1.12870e-05	-0.000634067799789432
1.12873e-05	-0.0006221815431977047
1.12875e-05	-0.0006113733930318968
1.12878e-05	-0.0006006592980624528
1.12880e-05	-0.0005899452030930088
1.12882e-05	-0.0005792311081236374
1.12885e-05	-0.0005696218300971398
1.12888e-05	-0.0005601089375221366
1.12890e-05	-0.0005505960449471333
1.12893e-05	-0.0005410831523721945
1.12895e-05	-0.0005324426769494085
1.12898e-05	-0.000523878312163459
1.12900e-05	-0.0005153139473775677
1.12903e-05	-0.0005077427659018022
1.12905e-05	-0.0005002582308360122
1.12908e-05	-0.0004927736957702728
1.12910e-05	-0.00048606912386534414
1.12913e-05	-0.0004794325968088488
1.12915e-05	-0.0004727960697523984
1.12918e-05	-0.0004672781632700098
1.12920e-05	-0.0004618578464831941
1.12923e-05	-0.0004564375296964151
1.12925e-05	-0.0004522891873350891
1.12928e-05	-0.00044825181342888066
1.12930e-05	-0.0004442144395226996
1.12933e-05	-0.00044017706561649123
1.12935e-05	-0.00043681674656011676
1.12938e-05	-0.0004343923328079085
1.12940e-05	-0.0004319679190556838
1.12943e-05	-0.00042954350530345907
1.12945e-05	-0.0004271190915512508
1.12948e-05	-0.00042639434172049443
1.12950e-05	-0.00042581787244936004
1.12952e-05	-0.00042524140317822955
1.12955e-05	-0.0004246649339070952
1.12958e-05	-0.0004240884646359608
1.12960e-05	-0.00042351199536483033
1.12963e-05	-0.00042293552609369594
1.12965e-05	-0.000423085366290129
1.12967e-05	-0.0004242391973498573
1.12970e-05	-0.0004253930284095934
1.12973e-05	-0.0004265468594693295
1.12975e-05	-0.0004277006905290656
1.12978e-05	-0.0004288545215887939
1.12980e-05	-0.00043000835264853
1.12983e-05	-0.0004311621837082661
1.12985e-05	-0.00043299508739365865
1.12988e-05	-0.0004348872341256959
1.12990e-05	-0.00043677938085773314
1.12993e-05	-0.0004388230284650102
1.12995e-05	-0.0004408798931761558
1.12998e-05	-0.0004429367578873013
1.13000e-05	-0.0004450375408096343
1.13003e-05	-0.00044714215520528253
1.13005e-05	-0.00044924676960093077
1.13008e-05	-0.0004512033808740147
1.13010e-05	-0.00045314708019106764
1.13013e-05	-0.0004550907795081206
1.13015e-05	-0.0004568554777615892
1.13018e-05	-0.0004584918107768257
1.13020e-05	-0.0004600063882821609
1.13023e-05	-0.00046173498662602295
1.13025e-05	-0.00046446213989060844
1.13028e-05	-0.0004687675850750661
1.13030e-05	-0.00047473386772248276
1.13033e-05	-0.00048226668028387304
1.13035e-05	-0.0004912600172674238
1.13037e-05	-0.0005016078022169943
1.13040e-05	-0.0005132133474196652
1.13043e-05	-0.0005261903287976747
1.13045e-05	-0.0005409335699410376
1.13048e-05	-0.0005586212939909296
1.13050e-05	-0.0005765532989847111
1.13052e-05	-0.000597070045072544
1.13055e-05	-0.0006193355759779813
1.13058e-05	-0.0006437218302784563
1.13060e-05	-0.0006682815050629975
1.13063e-05	-0.0006953563228010649
1.13065e-05	-0.0007226505643914903
1.13068e-05	-0.0007520542988507814
1.13070e-05	-0.0007829376639533419
1.13073e-05	-0.0008150469325629837
1.13075e-05	-0.0008481833348587465
1.13078e-05	-0.0008824322662395823
1.13080e-05	-0.0009167711773035514
1.13083e-05	-0.0009521044851836043
1.13085e-05	-0.0009875245453411401
1.13088e-05	-0.0010236081434626529
1.13090e-05	-0.0010600042514898108
1.13093e-05	-0.0010964738615078212
1.13095e-05	-0.0011327960078950925
1.13098e-05	-0.0011687497343705504
1.13100e-05	-0.0012041164402824976
1.13103e-05	-0.001238729126037548
1.13105e-05	-0.0012724899485797834
1.13108e-05	-0.0013052696593485588
1.13110e-05	-0.001336862431975449
1.13113e-05	-0.001367035161886398
1.13115e-05	-0.0013955528158877044
1.13118e-05	-0.001422180779741246
1.13120e-05	-0.0014467010730529856
1.13122e-05	-0.0014692879836513588
1.13125e-05	-0.0014906749861639847
1.13128e-05	-0.0015114356754814418
1.13130e-05	-0.0015316196699165186
1.13133e-05	-0.0015510827514506047
1.13135e-05	-0.0015696678571318963
1.13137e-05	-0.0015872177285430058
1.13140e-05	-0.0016035859030646762
1.13143e-05	-0.0016188715257767173
1.13145e-05	-0.0016335241251304844
1.13148e-05	-0.0016477716496474594
1.13150e-05	-0.0016619879977106602
1.13153e-05	-0.0016757409827695196
1.13155e-05	-0.001689011434724438
1.13158e-05	-0.0017013841543432062
1.13160e-05	-0.0017136819196950381
1.13163e-05	-0.0017250874368861587
1.13165e-05	-0.0017361065259138373
1.13168e-05	-0.001746907352082161
1.13170e-05	-0.001757691485419526
1.13173e-05	-0.0017681992606023301
1.13175e-05	-0.0017784030343954453
1.13178e-05	-0.0017880208402165252
1.13180e-05	-0.001797589655801751
1.13183e-05	-0.0018065577323608003
1.13185e-05	-0.0018152399783271822
1.13188e-05	-0.001823702970277113
1.13190e-05	-0.0018321486108373525
1.13193e-05	-0.0018403236217052366
1.13195e-05	-0.00184822211360456
1.13198e-05	-0.0018554355388553695
1.13200e-05	-0.0018625911230267355
1.13203e-05	-0.00186974670719815
1.13205e-05	-0.001876078285077966
1.13207e-05	-0.0018823379757376651
1.13210e-05	-0.0018885976663974068
1.13213e-05	-0.0018943736678266872
1.13215e-05	-0.0018996205523745889
1.13218e-05	-0.001904824957544523
1.13220e-05	-0.0019092615346141888
1.13222e-05	-0.0019136311255112722
1.13225e-05	-0.00191726844760419
1.13228e-05	-0.0019208418857568608
1.13230e-05	-0.001924079338080629
1.13233e-05	-0.0019268523510465277
1.13235e-05	-0.0019296253640124453
1.13238e-05	-0.001931468046142994
1.13240e-05	-0.0019332295651826527
1.13243e-05	-0.0019349910842223232
1.13245e-05	-0.0019358442939920986
1.13248e-05	-0.001936618261856708
1.13250e-05	-0.0019373922297213223
1.13253e-05	-0.0019373876977708151
1.13255e-05	-0.0019373152486355317
1.13258e-05	-0.001937242799500248
1.13260e-05	-0.0019363928499077565
1.13263e-05	-0.0019354750703155844
1.13265e-05	-0.001934557290723406
1.13268e-05	-0.0019330529951096878
1.13270e-05	-0.0019314975311896614
1.13273e-05	-0.0019299420672696244
1.13275e-05	-0.0019278999517367559
1.13278e-05	-0.0019258153801790295
1.13280e-05	-0.0019237308086212893
1.13283e-05	-0.001921266552438887
1.13285e-05	-0.0019187691721499651
1.13288e-05	-0.0019162717918610266
1.13290e-05	-0.0019135892805184963
1.13292e-05	-0.0019108906181381372
1.13295e-05	-0.0019081919557577597
1.13298e-05	-0.0019054229814098533
1.13300e-05	-0.0019026478729681617
1.13303e-05	-0.0018998727645264512
1.13305e-05	-0.0018971965925182375
1.13307e-05	-0.0018945290518339133
1.13310e-05	-0.001891861511149571
1.13313e-05	-0.0018896937427688978
1.13315e-05	-0.0018875695750766952
1.13318e-05	-0.0018854454073845067
1.13320e-05	-0.001883321239692304
1.13323e-05	-0.0018811970720001012
1.13325e-05	-0.0018790729043079127
1.13328e-05	-0.0018773236095749302
1.13330e-05	-0.0018760925085915857
1.13333e-05	-0.0018748614076082495
1.13335e-05	-0.0018736303066249048
1.13338e-05	-0.0018723992056415603
1.13340e-05	-0.001871168104658224
1.13343e-05	-0.0018699370036748793
1.13345e-05	-0.0018695818972152974
1.13348e-05	-0.0018693032134867603
1.13350e-05	-0.0018690245297582214
1.13353e-05	-0.0018687458460296825
1.13355e-05	-0.0018684671623011454
1.13358e-05	-0.0018681884785726065
1.13360e-05	-0.0018679097948440676
1.13363e-05	-0.0018676311111155304
1.13365e-05	-0.0018680722327702754
1.13368e-05	-0.0018685761510427194
1.13370e-05	-0.0018690800693151601
1.13373e-05	-0.001869583987587604
1.13375e-05	-0.0018700879058600479
1.13377e-05	-0.0018705918241324886
1.13380e-05	-0.0018710957424049326
1.13383e-05	-0.0018715996606773764
1.13385e-05	-0.0018723948962431835
1.13388e-05	-0.0018732155466518487
1.13390e-05	-0.001874036197060514
1.13392e-05	-0.0018749085999325802
1.13395e-05	-0.0018757855177467951
1.13398e-05	-0.00187666243556101
1.13400e-05	-0.0018775301806972283
1.13403e-05	-0.0018783971255988676
1.13405e-05	-0.0018792640705005128
1.13408e-05	-0.0018800623273912446
1.13410e-05	-0.0018808545918639324
1.13413e-05	-0.0018815793461403971
1.13415e-05	-0.0018822427463884494
1.13418e-05	-0.0018828380270932532
1.13420e-05	-0.0018833470532707162
1.13423e-05	-0.0018835313473958336
1.13425e-05	-0.001882860778873055
1.13428e-05	-0.0018809465518050577
1.13430e-05	-0.0018777304642225913
1.13433e-05	-0.0018732717340342177
1.13435e-05	-0.001867129028817885
1.13438e-05	-0.0018608480729593565
1.13440e-05	-0.0018530991317078597
1.13443e-05	-0.0018441795416432657
1.13445e-05	-0.0018338738278772704
1.13448e-05	-0.0018213123025649929
1.13450e-05	-0.001808563835294708
1.13453e-05	-0.0017932326881067095
1.13455e-05	-0.0017776762250664034
1.13458e-05	-0.0017594683227146772
1.13460e-05	-0.0017410291058649727
1.13462e-05	-0.0017225898890153928
1.13465e-05	-0.0017010673674701228
1.13468e-05	-0.0016792758550130899
1.13470e-05	-0.0016574843425562046
1.13473e-05	-0.0016334516272115956
1.13475e-05	-0.0016092233868482957
1.13477e-05	-0.001583806892079738
1.13480e-05	-0.0015582867326824638
1.13483e-05	-0.0015319557549490724
1.13485e-05	-0.0015055540405272637
1.13488e-05	-0.0014785291015265208
1.13490e-05	-0.0014514497917240184
1.13493e-05	-0.001424259606730094
1.13495e-05	-0.0013970597488620242
1.13498e-05	-0.001370343383921691
1.13500e-05	-0.0013436691994391464
1.13503e-05	-0.0013179796680328824
1.13505e-05	-0.0012923760388498583
1.13508e-05	-0.001268139156533937
1.13510e-05	-0.0012440215107265363
1.13513e-05	-0.0012212885466914851
1.13515e-05	-0.0011998117971814728
1.13518e-05	-0.0011797289490228806
1.13520e-05	-0.0011620099221154412
1.13523e-05	-0.0011444872624970337
1.13525e-05	-0.0011303104531746662
1.13528e-05	-0.0011164255395327068
1.13530e-05	-0.0011060544218532442
1.13533e-05	-0.0010959898516200866
1.13535e-05	-0.0010904895631279735
1.13538e-05	-0.0010853874676233601
1.13540e-05	-0.0010802853721187814
1.13543e-05	-0.0010798807406430125
1.13545e-05	-0.0010798859211248338
1.13548e-05	-0.0010826665148361539
1.13550e-05	-0.0010874730925438017
1.13553e-05	-0.00109416743274108
1.13555e-05	-0.00110269330682742
1.13558e-05	-0.0011129947003506318
1.13560e-05	-0.001125774130197566
1.13562e-05	-0.001138757348964227
1.13565e-05	-0.001154609938450044
1.13568e-05	-0.0011707128550111111
1.13570e-05	-0.0011892943219641847
1.13573e-05	-0.0012080920203947742
1.13575e-05	-0.0012289578543370366
1.13578e-05	-0.0012500041147088408
1.13580e-05	-0.0012727060613044107
1.13583e-05	-0.0012955524517976249
1.13585e-05	-0.0013195979111764653
1.13588e-05	-0.0013437479786509946
1.13590e-05	-0.0013684704105252116
1.13593e-05	-0.0013934452531543626
1.13595e-05	-0.0014185058592088497
1.13598e-05	-0.0014435060203860579
1.13600e-05	-0.001468299947337852
1.13603e-05	-0.0014927384617111489
1.13605e-05	-0.001516664805196827
1.13608e-05	-0.0015399140890952543
1.13610e-05	-0.0015623188434855215
1.13613e-05	-0.0015837113232304457
1.13615e-05	-0.0016039238809251789
1.13618e-05	-0.0016227888785061634
1.13620e-05	-0.0016401350373921183
1.13623e-05	-0.001655713239777499
1.13625e-05	-0.0016691983278665941
1.13628e-05	-0.0016803749542043064
1.13630e-05	-0.0016891871398208602
1.13633e-05	-0.0016956297246064557
1.13635e-05	-0.0016986096006110264
1.13638e-05	-0.001701303975027059
1.13640e-05	-0.0017007200093435842
1.13643e-05	-0.0016964432086694335
1.13645e-05	-0.0016918691924671769
1.13647e-05	-0.0016826249804308858
1.13650e-05	-0.0016729733353441475
1.13653e-05	-0.0016589329921328875
1.13655e-05	-0.0016445097740428003
1.13658e-05	-0.0016260727241200618
1.13660e-05	-0.0016072855030683092
1.13663e-05	-0.0015847806170398596
1.13665e-05	-0.0015619513978067695
1.13668e-05	-0.0015356778201406245
1.13670e-05	-0.001509103752834851
1.13673e-05	-0.0014796414162384225
1.13675e-05	-0.0014499271038340283
1.13678e-05	-0.0014179389131077072
1.13680e-05	-0.0013857523467215535
1.13683e-05	-0.001351856985376532
1.13685e-05	-0.001317812546869124
1.13688e-05	-0.001282609941768169
1.13690e-05	-0.00124730629693222
1.13693e-05	-0.0012115843137352588
1.13695e-05	-0.0011758017425731798
1.13698e-05	-0.0011401841051644713
1.13700e-05	-0.0011049385604144642
1.13703e-05	-0.0010702603259600185
1.13705e-05	-0.00103633298222531
1.13708e-05	-0.0010033567449967238
1.13710e-05	-0.0009715564900246356
1.13713e-05	-0.0009411649463072366
1.13715e-05	-0.00091241535194203
1.13718e-05	-0.0008855407308783525
1.13720e-05	-0.0008607733924010602
1.13723e-05	-0.0008383151225066968
1.13725e-05	-0.0008182897765376578
1.13728e-05	-0.0008007551097518172
1.13730e-05	-0.0007857534580941912
1.13732e-05	-0.0007733299059375475
1.13735e-05	-0.0007647585033523558
1.13738e-05	-0.000756505093592255
1.13740e-05	-0.0007532396219454753
1.13743e-05	-0.000750409303537398
1.13745e-05	-0.0007513348487774492
1.13748e-05	-0.0007550210500951724
1.13750e-05	-0.0007612838105521612
1.13753e-05	-0.0007700503235156809
1.13755e-05	-0.0007812481599729211
1.13758e-05	-0.0007948047489825483
1.13760e-05	-0.0008106472379064235
1.13763e-05	-0.0008286907584580401
1.13765e-05	-0.0008497087993214403
1.13768e-05	-0.0008709709810114031
1.13770e-05	-0.0008955176060221502
1.13773e-05	-0.000920350769501325
1.13775e-05	-0.000947929740231563
1.13778e-05	-0.000975748258223836
1.13780e-05	-0.0010057705477954592
1.13783e-05	-0.0010359850968377437
1.13785e-05	-0.0010674812153304149
1.13788e-05	-0.0010997148801788824
1.13790e-05	-0.0011324510261510197
1.13793e-05	-0.0011654972510636177
1.13795e-05	-0.0011986612368047934
1.13798e-05	-0.0012317507723374015
1.13800e-05	-0.0012645733347426945
1.13803e-05	-0.00129693187596754
1.13805e-05	-0.0013286173916278452
1.13808e-05	-0.001359410660113464
1.13810e-05	-0.00138909005035501
1.13813e-05	-0.0014174345406832486
1.13815e-05	-0.0014442229606690194
1.13817e-05	-0.0014683085194700902
1.13820e-05	-0.0014921692948700433
1.13823e-05	-0.001512112926315907
1.13825e-05	-0.0015317148217896715
1.13828e-05	-0.001546270388095349
1.13830e-05	-0.0015603857070617575
1.13833e-05	-0.001574501026028166
1.13835e-05	-0.0015833365586793735
1.13838e-05	-0.0015917114769316031
1.13840e-05	-0.0015956540108425664
1.13843e-05	-0.0015992098586400973
1.13845e-05	-0.0015994801923764524
1.13848e-05	-0.0015973793763887174
1.13850e-05	-0.0015930697927611433
1.13853e-05	-0.0015866031513824422
1.13855e-05	-0.0015780296739627
1.13858e-05	-0.001567400285024113
1.13860e-05	-0.0015547662956996917
1.13863e-05	-0.001540204742921346
1.13865e-05	-0.001523840733221968
1.13868e-05	-0.0015058147210438432
1.13870e-05	-0.0014862518757456386
1.13873e-05	-0.0014652689870005573
1.13875e-05	-0.0014424398001004718
1.13878e-05	-0.0014194594155718348
1.13880e-05	-0.0013945333347223587
1.13883e-05	-0.0013694375091731436
1.13885e-05	-0.0013432131765455295
1.13888e-05	-0.0013163478474390105
1.13890e-05	-0.001289041474843052
1.13893e-05	-0.00126145137894456
1.13895e-05	-0.0012337347017456698
1.13898e-05	-0.0012060483897823474
1.13900e-05	-0.0011785496921307888
1.13902e-05	-0.001151405950852811
1.13905e-05	-0.0011248033745305302
1.13908e-05	-0.0010989343452629129
1.13910e-05	-0.0010739847940830934
1.13913e-05	-0.0010501376985537075
1.13915e-05	-0.001027575509508012
1.13918e-05	-0.0010064807568293714
1.13920e-05	-0.0009870437961490809
1.13923e-05	-0.0009696231823802662
1.13925e-05	-0.0009547714338913394
1.13928e-05	-0.0009428692289776764
1.13930e-05	-0.0009339988563089176
