Time(s)	Current(A)
1.25500e-05	0.0128478192887706
1.25503e-05	0.012867335463762524
1.25505e-05	0.01288685163875445
1.25508e-05	0.012906367813746242
1.25510e-05	0.012925883988738169
1.25513e-05	0.012945400163730095
1.25515e-05	0.012970608403132952
1.25518e-05	0.012998014494624333
1.25520e-05	0.013025420586115714
1.25522e-05	0.01305282667760691
1.25525e-05	0.013080232769098291
1.25528e-05	0.013107638860589672
1.25530e-05	0.013135044952081055
1.25533e-05	0.013164261699293195
1.25535e-05	0.013199844696552833
1.25538e-05	0.013235427693812474
1.25540e-05	0.013271010691071871
1.25543e-05	0.013306593688331512
1.25545e-05	0.01334217668559115
1.25548e-05	0.01337775968285055
1.25550e-05	0.013413342680110189
1.25553e-05	0.013448925677369829
1.25555e-05	0.013484508674629227
1.25558e-05	0.013520091671888867
1.25560e-05	0.01355535683365829
1.25563e-05	0.013590499270991202
1.25565e-05	0.013625641708324355
1.25568e-05	0.013660784145657507
1.25570e-05	0.013695926582990422
1.25573e-05	0.013731069020323575
1.25575e-05	0.013766211457656727
1.25578e-05	0.01380135389498964
1.25580e-05	0.013836496332322793
1.25583e-05	0.013871638769655945
1.25585e-05	0.013905007668327867
1.25588e-05	0.013932140820216715
1.25590e-05	0.013959273972105562
1.25593e-05	0.01398436760068987
1.25595e-05	0.01400229028275663
1.25598e-05	0.014020212964823387
1.25600e-05	0.01403438444609561
1.25603e-05	0.014035366737414767
1.25605e-05	0.014036349028733922
1.25607e-05	0.014037331320053071
1.25610e-05	0.014038313611372227
1.25613e-05	0.014039295902691384
1.25615e-05	0.01402376145220614
1.25618e-05	0.01400184946400206
1.25620e-05	0.01397993747579783
1.25623e-05	0.0139580254875936
1.25625e-05	0.013936113499389518
1.25628e-05	0.01391062053574165
1.25630e-05	0.013872536893020473
1.25633e-05	0.013834453250299555
1.25635e-05	0.013794168058036996
1.25638e-05	0.013746142236390943
1.25640e-05	0.013698116414745214
1.25643e-05	0.013648421592246301
1.25645e-05	0.013592858577003885
1.25648e-05	0.013537295561761843
1.25650e-05	0.01348080448745549
1.25653e-05	0.013421050365406874
1.25655e-05	0.013360789335648781
1.25658e-05	0.01329874602271176
1.25660e-05	0.013236511536688058
1.25663e-05	0.013173604887724795
1.25665e-05	0.01311086610811661
1.25668e-05	0.013048717555728657
1.25670e-05	0.012987071786496785
1.25673e-05	0.012927193798545745
1.25675e-05	0.012868110199731542
1.25678e-05	0.012811819666338303
1.25680e-05	0.012758268352495486
1.25683e-05	0.012714348111199194
1.25685e-05	0.012670427869903201
1.25688e-05	0.01262650762860691
1.25690e-05	0.012582587387310619
1.25692e-05	0.012538667146014624
1.25695e-05	0.012497699695976286
1.25698e-05	0.012467114234783626
1.25700e-05	0.012436528773590964
1.25703e-05	0.01240594331239851
1.25705e-05	0.01237535785120585
1.25708e-05	0.012351550406212318
1.25710e-05	0.012330360127152521
1.25713e-05	0.012309169848092582
1.25715e-05	0.012287979569032641
1.25718e-05	0.01226932468398472
1.25720e-05	0.012259584222630808
1.25723e-05	0.012249843761276896
1.25725e-05	0.012240103299923049
1.25728e-05	0.012230362838569138
1.25730e-05	0.012220622377215225
1.25733e-05	0.012210881915861378
1.25735e-05	0.012201141454507467
1.25738e-05	0.012191400993153554
1.25740e-05	0.012181660531799707
1.25743e-05	0.012171920070445796
1.25745e-05	0.012162179609091883
1.25748e-05	0.012152439147738036
1.25750e-05	0.012142698686384125
1.25753e-05	0.012139999024481143
1.25755e-05	0.012140017995866921
1.25758e-05	0.012140036967252701
1.25760e-05	0.01214005593863848
1.25763e-05	0.01214007491002426
1.25765e-05	0.012140093881410038
1.25768e-05	0.012140112852795818
1.25770e-05	0.012140131824181596
1.25773e-05	0.012140150795567376
1.25775e-05	0.012140169766953155
1.25777e-05	0.012140188738338935
1.25780e-05	0.012140207709724713
1.25783e-05	0.012140226681110493
1.25785e-05	0.012141307621322
1.25788e-05	0.012146122434856386
1.25790e-05	0.012150937248390805
1.25793e-05	0.012155752061925224
1.25795e-05	0.01216056687545961
1.25798e-05	0.012165381688994028
1.25800e-05	0.012170196502528447
1.25803e-05	0.012175011316062833
1.25805e-05	0.012186576016043147
1.25808e-05	0.012200747020338496
1.25810e-05	0.012214918024633748
1.25813e-05	0.012229089028929097
1.25815e-05	0.012243260033224446
1.25818e-05	0.0122574310375197
1.25820e-05	0.01227160204181505
1.25823e-05	0.012288407155146163
1.25825e-05	0.012314473773355521
1.25828e-05	0.012340540391565057
1.25830e-05	0.01236660700977459
1.25833e-05	0.012392673627983951
1.25835e-05	0.012418740246193485
1.25838e-05	0.01244480686440302
1.25840e-05	0.01247087348261238
1.25843e-05	0.012496940100821915
1.25845e-05	0.01252300671903145
1.25848e-05	0.012549073337240809
1.25850e-05	0.012576363429457959
1.25853e-05	0.012607955245839934
1.25855e-05	0.012639547062221696
1.25858e-05	0.01267113887860367
1.25860e-05	0.012702730694985644
1.25862e-05	0.012734322511367404
1.25865e-05	0.01276591432774938
1.25868e-05	0.012797506144131355
1.25870e-05	0.012829097960513328
1.25873e-05	0.01286068977689509
1.25875e-05	0.012892281593277065
1.25878e-05	0.012922583685669488
1.25880e-05	0.012948351119525529
1.25883e-05	0.012974118553381743
1.25885e-05	0.012999885987237957
1.25888e-05	0.013025653421093998
1.25890e-05	0.013051420854950212
1.25893e-05	0.013077188288806427
1.25895e-05	0.01310247350335592
1.25898e-05	0.013126063238940519
1.25900e-05	0.013149652974525118
1.25903e-05	0.013173242710109558
1.25905e-05	0.013196832445694157
1.25908e-05	0.013220422181278757
1.25910e-05	0.013244011916863196
1.25913e-05	0.013268580144006168
1.25915e-05	0.013296588739115154
1.25918e-05	0.01332459733422395
1.25920e-05	0.013352605929332935
1.25923e-05	0.013380614524441921
1.25925e-05	0.013408623119550718
1.25928e-05	0.013436631714659704
1.25930e-05	0.01346464030976869
1.25933e-05	0.013492648904877487
1.25935e-05	0.013520657499986473
1.25938e-05	0.013549648275183625
1.25940e-05	0.013582092387186256
1.25943e-05	0.013614536499189105
1.25945e-05	0.013646980611191954
1.25947e-05	0.013679424723194585
1.25950e-05	0.013711868835197434
1.25953e-05	0.013744312947200283
1.25955e-05	0.013776757059202912
1.25958e-05	0.013809201171205763
1.25960e-05	0.013841645283208612
1.25963e-05	0.013873906966179858
1.25965e-05	0.01390552723023299
1.25968e-05	0.013937147494286335
1.25970e-05	0.01396876775833968
1.25973e-05	0.014000388022392809
1.25975e-05	0.014031104926588607
1.25978e-05	0.014058645625236106
1.25980e-05	0.014086186323883419
1.25983e-05	0.014113727022530918
1.25985e-05	0.014141267721178416
1.25988e-05	0.014167765952504107
1.25990e-05	0.014190598877625098
1.25993e-05	0.014213431802746087
1.25995e-05	0.014237028155349423
1.25998e-05	0.014263308712465296
1.26000e-05	0.014289589269581168
1.26003e-05	0.014315869826696864
1.26005e-05	0.014342150383812736
1.26008e-05	0.014368430940928609
1.26010e-05	0.014394711498044303
1.26013e-05	0.014420992055160176
1.26015e-05	0.014453065370448397
1.26018e-05	0.014487375418273342
1.26020e-05	0.014521685466098519
1.26023e-05	0.014555995513923697
1.26025e-05	0.014590305561748642
1.26028e-05	0.014624615609573819
1.26030e-05	0.014658925657398996
1.26032e-05	0.014695241414055189
1.26035e-05	0.014738609225844303
1.26038e-05	0.014781977037633419
1.26040e-05	0.01482534484942224
1.26043e-05	0.014868712661211356
1.26045e-05	0.014912080473000472
1.26048e-05	0.014955448284789586
1.26050e-05	0.014998816096578407
1.26053e-05	0.015042183908367522
1.26055e-05	0.015085551720156638
1.26058e-05	0.01512891953194546
1.26060e-05	0.015172287343734575
1.26063e-05	0.015214677086241673
1.26065e-05	0.015253627945499981
1.26068e-05	0.015292578804758553
1.26070e-05	0.015331529664017126
1.26073e-05	0.015370480523275434
1.26075e-05	0.015409431382534006
1.26078e-05	0.015448382241792577
1.26080e-05	0.015487333101050887
1.26083e-05	0.015526283960309459
1.26085e-05	0.01556523481956803
1.26088e-05	0.015604185678826338
1.26090e-05	0.015643136538084912
1.26093e-05	0.01567912435811539
1.26095e-05	0.015704694157505278
1.26098e-05	0.015730263956895342
1.26100e-05	0.015755833756285403
1.26103e-05	0.01578140355567529
1.26105e-05	0.015806973355065354
1.26108e-05	0.015824545233788078
1.26110e-05	0.015839204351620464
1.26113e-05	0.01585386346945295
1.26115e-05	0.01586852258728544
1.26117e-05	0.015883181705117825
1.26120e-05	0.01590110146719646
1.26123e-05	0.015916515089621688
1.26125e-05	0.01592208423079569
1.26128e-05	0.015927653371969733
1.26130e-05	0.015933222513143778
1.26133e-05	0.01593879165431782
1.26135e-05	0.015944360795491823
1.26138e-05	0.015949929936665865
1.26140e-05	0.015955499077839906
1.26143e-05	0.01596106821901391
1.26145e-05	0.01596663736018795
1.26148e-05	0.015972206501361993
1.26150e-05	0.015977775642535996
1.26153e-05	0.015983344783710038
1.26155e-05	0.01598891392488408
1.26158e-05	0.015988648332893037
1.26160e-05	0.015985510964212284
1.26163e-05	0.015982373595531528
1.26165e-05	0.015979236226850796
1.26168e-05	0.015976098858170043
1.26170e-05	0.01597296148948929
1.26173e-05	0.015969824120808558
1.26175e-05	0.015966686752127805
1.26178e-05	0.015963549383447052
1.26180e-05	0.015960412014766317
1.26183e-05	0.015957274646085564
1.26185e-05	0.01595413727740481
1.26188e-05	0.01595099990872408
1.26190e-05	0.015947862540043326
1.26193e-05	0.01594483389542018
1.26195e-05	0.015941836017069493
1.26198e-05	0.015938838138718783
1.26200e-05	0.015935840260368074
1.26202e-05	0.015932842382017386
1.26205e-05	0.015929844503666673
1.26208e-05	0.015926846625315964
1.26210e-05	0.015923848746965275
1.26213e-05	0.015920850868614566
1.26215e-05	0.015917852990263857
1.26218e-05	0.015914855111913147
1.26220e-05	0.015911857233562456
1.26223e-05	0.015908859355211746
1.26225e-05	0.015905861476861037
1.26228e-05	0.01590286359851035
1.26230e-05	0.01589986572015964
1.26233e-05	0.01589686784180893
1.26235e-05	0.01589386996345824
1.26238e-05	0.01589087208510753
1.26240e-05	0.015888471438146576
1.26243e-05	0.015886239793189903
1.26245e-05	0.015884008148233212
1.26248e-05	0.015881776503276525
1.26250e-05	0.01587954485831985
1.26253e-05	0.01587731321336316
1.26255e-05	0.01587508156840647
1.26258e-05	0.015872849923449797
1.26260e-05	0.01587061827849311
1.26263e-05	0.01586838663353642
1.26265e-05	0.015866154988579746
1.26268e-05	0.015863923343623056
1.26270e-05	0.01586169169866637
1.26273e-05	0.015859460053709692
1.26275e-05	0.015857228408753005
1.26278e-05	0.015854996763796314
1.26280e-05	0.01585276511883964
1.26283e-05	0.01585053347388295
1.26285e-05	0.015848301828926263
1.26288e-05	0.015845582526506797
1.26290e-05	0.015842725228847877
1.26293e-05	0.015839867931188956
1.26295e-05	0.015831622459205233
1.26298e-05	0.0158218522645158
1.26300e-05	0.01581208206982637
1.26303e-05	0.015791734557307265
1.26305e-05	0.015768393920273786
1.26308e-05	0.015745053283240152
1.26310e-05	0.015721712646206514
1.26313e-05	0.01569837200917304
1.26315e-05	0.015669598363726753
1.26318e-05	0.015626815097962692
1.26320e-05	0.015584031832198917
1.26323e-05	0.015541248566434854
1.26325e-05	0.015498465300670792
1.26328e-05	0.015455682034907018
1.26330e-05	0.015398296309162795
1.26333e-05	0.015336778441258352
1.26335e-05	0.015275260573354325
1.26338e-05	0.015213742705449881
1.26340e-05	0.01515222483754544
1.26343e-05	0.015090706969641413
1.26345e-05	0.015025696028133485
1.26348e-05	0.014951677805352157
1.26350e-05	0.014877659582571331
1.26353e-05	0.014803641359790003
1.26355e-05	0.014729623137008674
1.26358e-05	0.014655604914227849
1.26360e-05	0.01458158669144652
1.26363e-05	0.014505788150975928
1.26365e-05	0.014429485823760774
1.26368e-05	0.014354466176269084
1.26370e-05	0.014279809496042758
1.26373e-05	0.014207536335270056
1.26375e-05	0.01413593765271748
1.26378e-05	0.01406872139872946
1.26380e-05	0.014002745265780714
1.26383e-05	0.01393676913283152
1.26385e-05	0.013885542776239471
1.26388e-05	0.013838490248772019
1.26390e-05	0.013791437721304884
1.26393e-05	0.013744385193837432
1.26395e-05	0.01369733266636998
1.26398e-05	0.013650280138902847
1.26400e-05	0.013603227611435394
1.26403e-05	0.013563749447835251
1.26405e-05	0.01354380262928496
1.26408e-05	0.013523855810734531
1.26410e-05	0.013503908992184104
1.26413e-05	0.01348396217363381
1.26415e-05	0.013464015355083384
1.26418e-05	0.013444068536532955
1.26420e-05	0.013424121717982664
1.26423e-05	0.013425737145051164
1.26425e-05	0.013433454164889008
1.26428e-05	0.0134411711847268
1.26430e-05	0.013448888204564646
1.26433e-05	0.01345660522440249
1.26435e-05	0.013464322244240282
1.26438e-05	0.013472039264078127
1.26440e-05	0.013479756283915971
1.26443e-05	0.013487473303753763
1.26445e-05	0.013495190323591609
1.26448e-05	0.013502907343429453
1.26450e-05	0.013514973676943098
1.26453e-05	0.013538255202601636
1.26455e-05	0.013561536728260175
1.26458e-05	0.013584818253918555
1.26460e-05	0.013608099779577094
1.26463e-05	0.013631381305235632
1.26465e-05	0.013654662830894013
1.26468e-05	0.01367794435655255
1.26470e-05	0.013701225882211088
1.26473e-05	0.013724507407869627
1.26475e-05	0.013747788933528007
1.26478e-05	0.013771070459186546
1.26480e-05	0.013791075378857785
1.26483e-05	0.013810153098470212
1.26485e-05	0.013829230818082766
1.26488e-05	0.013848308537695322
1.26490e-05	0.013867386257307747
1.26493e-05	0.013886334232023415
1.26495e-05	0.01390494764499968
1.26498e-05	0.01392356105797582
1.26500e-05	0.013942174470952085
1.26503e-05	0.01396078788392835
1.26505e-05	0.013979401296904488
1.26508e-05	0.014003933571465448
1.26510e-05	0.01403014074036244
1.26513e-05	0.014056347909259255
1.26515e-05	0.014082555078156249
1.26518e-05	0.014108762247053241
1.26520e-05	0.014134969415950056
1.26523e-05	0.01416117658484705
1.26525e-05	0.014190444881593243
1.26528e-05	0.014227606639141641
1.26530e-05	0.01426476839669029
1.26533e-05	0.01430193015423894
1.26535e-05	0.014339091911787338
1.26538e-05	0.01437625366933599
1.26540e-05	0.01441341542688464
1.26543e-05	0.014450577184433037
1.26545e-05	0.014492796285570259
1.26548e-05	0.01453644649233689
1.26550e-05	0.014580096699103224
1.26553e-05	0.014623746905869855
1.26555e-05	0.014667397112636486
1.26558e-05	0.014711047319403116
1.26560e-05	0.01475469752616945
1.26563e-05	0.014798347732936082
1.26565e-05	0.014841997939702712
1.26568e-05	0.014883623206622147
1.26570e-05	0.014920026939486627
1.26573e-05	0.014956430672351107
1.26575e-05	0.01499283440521534
1.26578e-05	0.01502923813807982
1.26580e-05	0.0150656418709443
1.26583e-05	0.015102045603808534
1.26585e-05	0.015138449336673014
1.26588e-05	0.015174853069537494
1.26590e-05	0.015211256802401728
1.26593e-05	0.01522825628416586
1.26595e-05	0.015239764833288302
1.26598e-05	0.015251273382410667
1.26600e-05	0.015262781931533109
1.26603e-05	0.015274290480655551
1.26605e-05	0.015285799029777915
1.26608e-05	0.015297307578900358
1.26610e-05	0.0153088161280228
1.26613e-05	0.015320324677145163
1.26615e-05	0.015331833226267605
1.26618e-05	0.015343341775390047
1.26620e-05	0.015354850324512411
1.26623e-05	0.015366358873634854
1.26625e-05	0.015377867422757296
1.26628e-05	0.01538937597187966
1.26630e-05	0.015400884521002103
1.26633e-05	0.015412393070124545
1.26635e-05	0.01542390161924691
1.26638e-05	0.01543541016836935
1.26640e-05	0.015433884234109248
1.26643e-05	0.015428669857047928
1.26645e-05	0.015423455479986645
1.26648e-05	0.015418241102925327
1.26650e-05	0.015413026725864008
1.26653e-05	0.015407812348802724
1.26655e-05	0.015402597971741407
1.26658e-05	0.015397383594680087
1.26660e-05	0.015392169217618804
1.26663e-05	0.015386954840557486
1.26665e-05	0.015381740463496166
1.26668e-05	0.015376526086434883
1.26670e-05	0.015371311709373565
1.26673e-05	0.015366097332312246
1.26675e-05	0.015360882955250963
1.26678e-05	0.015355668578189643
1.26680e-05	0.015350454201128325
1.26683e-05	0.015345239824067042
1.26685e-05	0.015340025447005723
1.26688e-05	0.015333934822380565
1.26690e-05	0.015327596240937774
1.26693e-05	0.015321257659494941
1.26695e-05	0.015309957253790274
1.26698e-05	0.015297252772109173
1.26700e-05	0.015284548290427984
1.26703e-05	0.015261699484141737
1.26705e-05	0.015235980079921331
1.26708e-05	0.01521026067570075
1.26710e-05	0.01518454127148017
1.26713e-05	0.015158821867259762
1.26715e-05	0.01512783005061341
1.26718e-05	0.015083242728356627
1.26720e-05	0.015038655406100148
1.26723e-05	0.014994068083843366
1.26725e-05	0.014949480761586585
1.26728e-05	0.014904893439329802
1.26730e-05	0.014845583134588372
1.26733e-05	0.014782106582732059
1.26735e-05	0.014718630030875745
1.26738e-05	0.014655153479019863
1.26740e-05	0.014591676927163549
1.26743e-05	0.014528200375307235
1.26745e-05	0.014464723823451351
1.26748e-05	0.014391755814965232
1.26750e-05	0.014316101954353656
1.26753e-05	0.014240448093742593
1.26755e-05	0.01416479423313102
1.26758e-05	0.014089140372519444
1.26760e-05	0.01401348651190838
1.26763e-05	0.013937832651296805
1.26765e-05	0.013861948712364711
1.26768e-05	0.013785999666846191
1.26770e-05	0.013710050621327158
1.26773e-05	0.013637734020254245
1.26775e-05	0.01356644531289907
1.26778e-05	0.013495156605543412
1.26780e-05	0.013429888096550312
1.26783e-05	0.01336632315774723
1.26785e-05	0.013302758218943715
1.26788e-05	0.013254569501409148
1.26790e-05	0.013210731881730086
1.26793e-05	0.01316689426205073
1.26795e-05	0.013123056642371372
1.26798e-05	0.013079219022692313
1.26800e-05	0.013035381403012955
1.26803e-05	0.012991543783333599
1.26805e-05	0.012969739654116052
1.26808e-05	0.012954170468544026
1.26810e-05	0.012938601282972001
1.26813e-05	0.012923032097399974
1.26815e-05	0.012907462911828054
1.26818e-05	0.012891893726256027
1.26820e-05	0.012876324540684
1.26823e-05	0.012884109445356562
1.26825e-05	0.01289850299139856
1.26828e-05	0.012912896537440556
1.26830e-05	0.012927290083482456
1.26833e-05	0.012941683629524454
1.26835e-05	0.012956077175566452
1.26838e-05	0.01297047072160835
1.26840e-05	0.012984864267650349
1.26843e-05	0.012999257813692346
1.26845e-05	0.013013651359734247
1.26848e-05	0.013033219084580971
1.26850e-05	0.013066129008656708
1.26853e-05	0.013099038932732223
1.26855e-05	0.013131948856807962
1.26858e-05	0.013164858780883701
1.26860e-05	0.013197768704959216
1.26863e-05	0.013230678629034954
1.26865e-05	0.013263588553110692
1.26868e-05	0.013296498477186208
1.26870e-05	0.013329408401261946
1.26873e-05	0.013362318325337684
1.26875e-05	0.013392418320072735
1.26878e-05	0.01342172317292519
1.26880e-05	0.013451028025777644
1.26883e-05	0.0134803328786299
1.26885e-05	0.013509637731482355
1.26888e-05	0.01353894258433481
1.26890e-05	0.013565137527065082
1.26893e-05	0.013583313218431278
1.26895e-05	0.013601488909797474
1.26898e-05	0.01361966460116367
1.26900e-05	0.013637840292529742
1.26903e-05	0.013656015983895937
1.26905e-05	0.013674191675262133
1.26908e-05	0.013679928325338485
1.26910e-05	0.0136821450282865
1.26913e-05	0.013684361731234515
1.26915e-05	0.013686578434182514
1.26918e-05	0.01368879513713053
1.26920e-05	0.013691011840078544
1.26923e-05	0.013693228543026544
1.26925e-05	0.013695445245974559
1.26928e-05	0.013697661948922572
1.26930e-05	0.013699878651870574
1.26933e-05	0.013702095354818587
1.26935e-05	0.013704312057766602
1.26938e-05	0.013706528760714601
1.26940e-05	0.013708745463662617
1.26943e-05	0.013710962166610632
1.26945e-05	0.013713178869558631
1.26948e-05	0.013715395572506646
1.26950e-05	0.013717612275454661
1.26953e-05	0.013712635309168006
1.26955e-05	0.013705622708881862
1.26958e-05	0.013698610108595717
1.26960e-05	0.01369159750830962
1.26963e-05	0.013684584908023475
1.26965e-05	0.013677572307737331
1.26968e-05	0.013670559707451234
1.26970e-05	0.01366354710716509
1.26973e-05	0.013656534506878945
1.26975e-05	0.013649521906592847
1.26978e-05	0.013642509306306703
1.26980e-05	0.013635496706020558
1.26983e-05	0.013628484105734412
1.26985e-05	0.013621471505448316
1.26988e-05	0.01361445890516217
1.26990e-05	0.013607446304876026
1.26993e-05	0.01360043370458993
1.26995e-05	0.013593421104303784
1.26998e-05	0.01359273056652244
1.27000e-05	0.013593829019166349
1.27003e-05	0.013594927471810264
1.27005e-05	0.013596025924454181
1.27008e-05	0.01359712437709809
1.27010e-05	0.013598222829742004
1.27013e-05	0.013599321282385921
1.27015e-05	0.01360041973502983
1.27018e-05	0.013601518187673746
1.27020e-05	0.013602616640317661
