Time(s)	Current(A)
4.25000e-06	-0.0008672888528014098
4.25025e-06	-0.0008580559810291111
4.25050e-06	-0.0008519121624196946
4.25075e-06	-0.0008469140359238712
4.25100e-06	-0.0008450162042436117
4.25125e-06	-0.0008439193149406055
4.25150e-06	-0.0008455036069356797
4.25175e-06	-0.0008489821512750842
4.25200e-06	-0.0008543182457201402
4.25225e-06	-0.0008614751344414659
4.25250e-06	-0.0008704146702356311
4.25275e-06	-0.0008810830410953772
4.25300e-06	-0.000893380752269968
4.25325e-06	-0.0009071726085049752
4.25350e-06	-0.0009223377989990626
4.25375e-06	-0.0009387777162202589
4.25400e-06	-0.0009563973652658395
4.25425e-06	-0.00097510173552711
4.25450e-06	-0.000994794941468536
4.25475e-06	-0.0010153714159702515
4.25500e-06	-0.0010366967403733591
4.25525e-06	-0.00105861436187245
4.25550e-06	-0.0010809766674771558
4.25575e-06	-0.0011036498756162199
4.25600e-06	-0.0011265026383944225
4.25625e-06	-0.0011494035229132654
4.25650e-06	-0.0011722205308535804
4.25675e-06	-0.0011948156104732372
4.25700e-06	-0.0012170328153820354
4.25725e-06	-0.0012387019980713227
4.25750e-06	-0.001259658970305092
4.25775e-06	-0.0012797481217332743
4.25800e-06	-0.0012988152020545107
4.25825e-06	-0.0013163232023760837
4.25850e-06	-0.0013318542868763369
4.25875e-06	-0.0013473853713766425
4.25900e-06	-0.0013618839134013703
4.25925e-06	-0.0013735883486629577
4.25950e-06	-0.0013852927839245845
4.25975e-06	-0.001396163307006753
4.26000e-06	-0.0014047772259146935
4.26025e-06	-0.001412654259930478
4.26050e-06	-0.0014185372500113412
4.26075e-06	-0.001423860614677262
4.26100e-06	-0.00142733943315207
4.26125e-06	-0.0014296196457636587
4.26150e-06	-0.0014307729578858816
4.26175e-06	-0.0014308107081479563
4.26200e-06	-0.001429735350505431
4.26225e-06	-0.001427549521864636
4.26250e-06	-0.0014242576015637927
4.26275e-06	-0.001419885540289549
4.26300e-06	-0.0014145179361613265
4.26325e-06	-0.0014082745661368394
4.26350e-06	-0.0014012390410168612
4.26375e-06	-0.0013933660202184658
4.26400e-06	-0.0013847225318187814
4.26425e-06	-0.0013757362726560887
4.26450e-06	-0.0013658224602645951
4.26475e-06	-0.0013556385965306113
4.26500e-06	-0.0013447239616173683
4.26525e-06	-0.001333647946132773
4.26550e-06	-0.001322135227503681
4.26575e-06	-0.0013105367847715181
4.26600e-06	-0.0012987063687291604
4.26625e-06	-0.001286854765106189
4.26650e-06	-0.0012749554704981564
4.26675e-06	-0.0012631161342592778
4.26700e-06	-0.0012514328578825287
4.26725e-06	-0.0012400155209501286
4.26750e-06	-0.001229027160378588
4.26775e-06	-0.0012185288848638959
4.26800e-06	-0.0012082541234038208
4.26825e-06	-0.0011987614920011195
4.26850e-06	-0.0011899359291910674
4.26875e-06	-0.0011817343130944063
4.26900e-06	-0.001173826760858758
4.26925e-06	-0.0011657639950093546
4.26950e-06	-0.0011573643190724854
4.26975e-06	-0.0011486579884352542
4.27000e-06	-0.0011397327749567184
4.27025e-06	-0.0011307709661758896
4.27050e-06	-0.001121708181286302
4.27075e-06	-0.0011126030597214103
4.27100e-06	-0.0011032817860868987
4.27125e-06	-0.001093427559350885
4.27150e-06	-0.001082979458839865
4.27175e-06	-0.0010723045145728863
4.27200e-06	-0.0010610157208153284
4.27225e-06	-0.0010495594891523042
4.27250e-06	-0.0010376501629243016
4.27275e-06	-0.0010257408366962989
4.27300e-06	-0.001013559071792664
4.27325e-06	-0.0010006400754784563
4.27350e-06	-0.000987721079164205
4.27375e-06	-0.0009745961779940878
4.27400e-06	-0.0009609140889465813
4.27425e-06	-0.0009471681413582388
4.27450e-06	-0.0009332493896627351
4.27475e-06	-0.0009193306379672312
4.27500e-06	-0.0009053611920925063
4.27525e-06	-0.0008912545654701275
4.27550e-06	-0.0008771479388477487
4.27575e-06	-0.0008630713030964779
4.27600e-06	-0.0008490758240026133
4.27625e-06	-0.0008352114047801075
4.27650e-06	-0.0008217016395126895
4.27675e-06	-0.0008083799866641901
4.27700e-06	-0.0007955673745515786
4.27725e-06	-0.000782969693089011
4.27750e-06	-0.0007709536237121698
4.27775e-06	-0.0007591499091786905
4.27800e-06	-0.0007480936197090892
4.27825e-06	-0.0007377011219817359
4.27850e-06	-0.0007280647857704856
4.27875e-06	-0.0007193283980937498
4.27900e-06	-0.0007117596281006465
4.27925e-06	-0.000705648218873487
4.27950e-06	-0.0007011177943532534
4.27975e-06	-0.0006981655358933978
4.28000e-06	-0.0006967720982274655
4.28025e-06	-0.0006969179706998112
4.28050e-06	-0.0006985871940975027
4.28075e-06	-0.0007020297992237705
4.28100e-06	-0.0007072709625315713
4.28125e-06	-0.0007134502377762257
4.28150e-06	-0.0007221680864627567
4.28175e-06	-0.0007317528354548932
4.28200e-06	-0.0007436834559855539
4.28225e-06	-0.0007563892451208485
4.28250e-06	-0.0007711926756520225
4.28275e-06	-0.0007867196094458626
4.28300e-06	-0.0008042043758770154
4.28325e-06	-0.0008223759481785535
4.28350e-06	-0.0008424060483100288
4.28375e-06	-0.0008629986794922161
4.28400e-06	-0.0008851135452069002
4.28425e-06	-0.0009076538273847377
4.28450e-06	-0.000931345305802924
4.28475e-06	-0.0009553502237708934
4.28500e-06	-0.0009802033233741836
4.28525e-06	-0.0010052672150600538
4.28550e-06	-0.0010309015196803793
4.28575e-06	-0.0010565891937588726
4.28600e-06	-0.0010824212880109821
4.28625e-06	-0.0011081412561415654
4.28650e-06	-0.0011335578059024137
4.28675e-06	-0.0011587940649012498
4.28700e-06	-0.0011833794192065783
4.28725e-06	-0.0012073224748999265
4.28750e-06	-0.0012304752351442387
4.28775e-06	-0.0012526703372518428
4.28800e-06	-0.001273737761261954
4.28825e-06	-0.0012932950589315186
4.28850e-06	-0.0013112390838073396
4.28875e-06	-0.0013281400849773765
4.28900e-06	-0.0013422186167020879
4.28925e-06	-0.0013562971484268468
4.28950e-06	-0.0013693788220217867
4.28975e-06	-0.0013797629523134274
4.29000e-06	-0.0013891776180747404
4.29025e-06	-0.0013959688688549698
4.29050e-06	-0.0014027601196352222
4.29075e-06	-0.0014064046351665303
4.29100e-06	-0.0014091083111667658
4.29125e-06	-0.0014111071773501409
4.29150e-06	-0.001410817199871261
4.29175e-06	-0.0014091177209043303
4.29200e-06	-0.0014060261399230552
4.29225e-06	-0.0014015597178073662
4.29250e-06	-0.0013957374967031471
4.29275e-06	-0.0013885963963137392
4.29300e-06	-0.0013802240249884217
4.29325e-06	-0.0013707422032947687
4.29350e-06	-0.0013602472422622918
4.29375e-06	-0.0013488061306680002
4.29400e-06	-0.0013364813299489122
4.29425e-06	-0.0013233353773112939
4.29450e-06	-0.0013094317172066508
4.29475e-06	-0.001294845169215465
4.29500e-06	-0.0012796821531624153
4.29525e-06	-0.0012640706595400675
4.29550e-06	-0.001248122451029362
4.29575e-06	-0.0012319312216849674
4.29600e-06	-0.0012155877126333015
4.29625e-06	-0.0011991825264069667
4.29650e-06	-0.001182807041611865
4.29675e-06	-0.0011665596585341005
4.29700e-06	-0.0011505585920549236
4.29725e-06	-0.0011349356281167122
4.29750e-06	-0.0011198123044894787
4.29775e-06	-0.0011052987574894679
4.29800e-06	-0.0010917553787695294
4.29825e-06	-0.0010794762786742972
4.29850e-06	-0.0010671971785790233
4.29875e-06	-0.0010554238999045385
4.29900e-06	-0.0010452015881363354
4.29925e-06	-0.0010357007869306021
4.29950e-06	-0.001026818297875207
4.29975e-06	-0.001018281783635232
4.30000e-06	-0.0010106814929344387
4.30025e-06	-0.001003484849989096
4.30050e-06	-0.000997380496173758
4.30075e-06	-0.000991580024723132
4.30100e-06	-0.0009867553845273485
4.30125e-06	-0.0009825415699864241
4.30150e-06	-0.0009788565593893143
4.30175e-06	-0.0009754465632746215
4.30200e-06	-0.0009727807688200976
4.30225e-06	-0.0009704123779482138
4.30250e-06	-0.0009688487746569258
4.30275e-06	-0.0009675004161385839
4.30300e-06	-0.0009668426722049293
4.30325e-06	-0.0009665673857485993
4.30350e-06	-0.0009666666351115731
4.30375e-06	-0.0009671218772275773
4.30400e-06	-0.0009677534364526504
4.30425e-06	-0.0009688621177700692
4.30450e-06	-0.000970139734311533
4.30475e-06	-0.0009718744972297429
4.30500e-06	-0.0009737178995068846
4.30525e-06	-0.0009758552848156271
4.30550e-06	-0.0009780588243790901
4.30575e-06	-0.0009804413803556002
4.30600e-06	-0.0009828763320096324
4.30625e-06	-0.0009854530687429584
4.30650e-06	-0.0009880639035026253
4.30675e-06	-0.0009907670090677858
4.30700e-06	-0.0009934528064684978
4.30725e-06	-0.0009960917671913317
4.30750e-06	-0.0009986540557821461
4.30775e-06	-0.001001008866106954
4.30800e-06	-0.001003363676431762
4.30825e-06	-0.0010056350033958855
4.30850e-06	-0.001007634181729092
4.30875e-06	-0.0010094940372307965
4.30900e-06	-0.0010113609563327597
4.30925e-06	-0.0010134627561368228
4.30950e-06	-0.0010158670817785145
4.30975e-06	-0.0010184231077751298
4.31000e-06	-0.0010213896418110311
4.31025e-06	-0.0010243561758469324
4.31050e-06	-0.0010274404483312748
4.31075e-06	-0.001030843326395937
4.31100e-06	-0.001034505567776198
4.31125e-06	-0.0010388696580493695
4.31150e-06	-0.0010432337483225263
4.31175e-06	-0.0010475978385956978
4.31200e-06	-0.0010522594188352992
4.31225e-06	-0.001057726020413818
4.31250e-06	-0.001063192621992355
4.31275e-06	-0.0010686592235708739
4.31300e-06	-0.0010743576346629595
4.31325e-06	-0.0010806833328101983
4.31350e-06	-0.0010870090309574158
4.31375e-06	-0.0010934987326012644
4.31400e-06	-0.0011004322351437638
4.31425e-06	-0.0011073657376862395
4.31450e-06	-0.0011143748076956888
4.31475e-06	-0.0011215883666973972
4.31500e-06	-0.0011288019256990814
4.31525e-06	-0.0011360598388354618
4.31550e-06	-0.0011434377762715908
4.31575e-06	-0.0011508157137076946
4.31600e-06	-0.0011581616891522834
4.31625e-06	-0.0011654211739984283
4.31650e-06	-0.0011726005575389937
4.31675e-06	-0.0011795631833145036
4.31700e-06	-0.0011864224155812375
4.31725e-06	-0.0011930018603249304
4.31750e-06	-0.0011994412220207081
4.31775e-06	-0.0012055015126367138
4.31800e-06	-0.0012113700784218892
4.31825e-06	-0.0012167198281211424
4.31850e-06	-0.0012218999829384793
4.31875e-06	-0.0012265480471227387
4.31900e-06	-0.0012310087565644346
4.31925e-06	-0.0012355748586966534
4.31950e-06	-0.001240348410760506
4.31975e-06	-0.0012451949283077688
4.32000e-06	-0.0012502388937616717
4.32025e-06	-0.0012552828592155916
4.32050e-06	-0.0012603455673279257
4.32075e-06	-0.001265458993923852
4.32100e-06	-0.001270713084694862
4.32125e-06	-0.001276347819101933
4.32150e-06	-0.0012819825535090041
4.32175e-06	-0.0012881237839555111
4.32200e-06	-0.0012944164511954112
4.32225e-06	-0.0013008174300595293
4.32250e-06	-0.0013075115050901372
4.32275e-06	-0.0013142055801207222
4.32300e-06	-0.0013210916783987837
4.32325e-06	-0.0013284974002917248
4.32350e-06	-0.0013359031221846407
4.32375e-06	-0.0013433088440775566
4.32400e-06	-0.0013507145659704977
4.32425e-06	-0.001358466121244898
4.32450e-06	-0.0013663210769297026
4.32475e-06	-0.0013741760326145339
4.32500e-06	-0.0013820309882993384
4.32525e-06	-0.001389910857409849
4.32550e-06	-0.001397858143379901
4.32575e-06	-0.0014058054293499531
4.32600e-06	-0.0014136760065403225
4.32625e-06	-0.0014213390062944732
4.32650e-06	-0.0014290020060486238
4.32675e-06	-0.001436501661963941
4.32700e-06	-0.0014435593020445917
4.32725e-06	-0.0014506169421252422
4.32750e-06	-0.001457496642129147
4.32775e-06	-0.0014638948282167552
4.32800e-06	-0.0014701472299281796
4.32825e-06	-0.001475889566741213
4.32850e-06	-0.0014811843558596052
4.32875e-06	-0.0014859231367923085
4.32900e-06	-0.0014898700773062867
4.32925e-06	-0.0014927575404597435
4.32950e-06	-0.0014944723538883823
4.32975e-06	-0.0014950234813108578
4.33000e-06	-0.0014942881415533327
4.33025e-06	-0.0014923347506607312
4.33050e-06	-0.0014899413837144574
4.33075e-06	-0.001486045309235345
4.33100e-06	-0.0014807757559969917
4.33125e-06	-0.0014740750064879552
4.33150e-06	-0.0014668503316157373
4.33175e-06	-0.0014578835591969252
4.33200e-06	-0.00144759185092925
4.33225e-06	-0.0014360897843021052
4.33250e-06	-0.001424045306186885
4.33275e-06	-0.0014105330379900935
4.33300e-06	-0.0013964842481071482
4.33325e-06	-0.0013809836062135003
4.33350e-06	-0.0013651126921082174
4.33375e-06	-0.0013480291224686513
4.33400e-06	-0.0013301147783334071
4.33425e-06	-0.0013114950789297635
4.33450e-06	-0.0012926129613664375
4.33475e-06	-0.0012730207283642516
4.33500e-06	-0.0012532313362073075
4.33525e-06	-0.001232908422437606
4.33550e-06	-0.0012124962506837062
4.33575e-06	-0.001191826208393214
4.33600e-06	-0.001171128361727632
4.33625e-06	-0.0011505239840401678
4.33650e-06	-0.0011301335411984087
4.33675e-06	-0.0011100696699041632
4.33700e-06	-0.0010904250276940325
4.33725e-06	-0.0010712875669884447
4.33750e-06	-0.0010527690702256105
4.33775e-06	-0.0010350001572086865
4.33800e-06	-0.001018263808502433
4.33825e-06	-0.0010026489049704643
4.33850e-06	-0.0009875059080715108
4.33875e-06	-0.0009738802158361364
4.33900e-06	-0.0009609726002952295
4.33925e-06	-0.0009482285798560487
4.33950e-06	-0.0009354254909329168
4.33975e-06	-0.0009226325870449139
4.34000e-06	-0.0009099598335527082
4.34025e-06	-0.0008975171311369554
4.34050e-06	-0.0008854055665733875
4.34075e-06	-0.0008736373635380656
4.34100e-06	-0.0008619930354609709
4.34125e-06	-0.0008501161358797474
4.34150e-06	-0.000837904430554576
4.34175e-06	-0.0008256111711059497
4.34200e-06	-0.0008130897777919045
4.34225e-06	-0.0008005482387561245
4.34250e-06	-0.0007880066997203869
4.34275e-06	-0.0007754901648569125
4.34300e-06	-0.0007629239780345435
4.34325e-06	-0.0007500403331730639
4.34350e-06	-0.0007371566883115844
4.34375e-06	-0.0007241797071051872
4.34400e-06	-0.0007109487870834155
4.34425e-06	-0.0006977141694291813
4.34450e-06	-0.000684541119837261
4.34475e-06	-0.0006715346762138076
4.34500e-06	-0.0006585282325903542
4.34525e-06	-0.0006455325869369772
4.34550e-06	-0.0006325661610804018
4.34575e-06	-0.000619668080484887
4.34600e-06	-0.0006069549452647335
4.34625e-06	-0.0005943964134175421
4.34650e-06	-0.0005822562453075923
4.34675e-06	-0.0005703115950610257
4.34700e-06	-0.0005588960250179983
4.34725e-06	-0.0005476759963974843
4.34750e-06	-0.0005369851117328296
4.34775e-06	-0.0005264837216274592
4.34800e-06	-0.0005167368141548798
4.34825e-06	-0.0005076439626129434
4.34850e-06	-0.0004988287170664809
4.34875e-06	-0.0004909269224873316
4.34900e-06	-0.00048355946793914105
4.34925e-06	-0.000476545307097311
4.34950e-06	-0.0004697891729988924
4.34975e-06	-0.0004631960293513088
4.35000e-06	-0.0004570439452540426
4.35025e-06	-0.0004511058141000081
4.35050e-06	-0.0004457466493116204
4.35075e-06	-0.00044054631677390024
4.35100e-06	-0.0004358341084001406
4.35125e-06	-0.0004313376049321516
4.35150e-06	-0.0004269977727016658
4.35175e-06	-0.0004227580082052131
4.35200e-06	-0.00041878903153433697
4.35225e-06	-0.00041495256362624746
4.35250e-06	-0.000411474670438583
4.35275e-06	-0.00040811350527120247
4.35300e-06	-0.0004050682114194366
4.35325e-06	-0.0004020917117625391
4.35350e-06	-0.0003993013723162229
4.35375e-06	-0.0003965110328698973
4.35400e-06	-0.0003938505170911475
4.35425e-06	-0.00039154131004334606
4.35450e-06	-0.0003892321029955368
4.35475e-06	-0.0003869228959477353
4.35500e-06	-0.0003847270931086854
4.35525e-06	-0.000382838167200552
4.35550e-06	-0.0003809492412924186
4.35575e-06	-0.0003790603153842788
4.35600e-06	-0.000377269811992178
4.35625e-06	-0.0003757456443911583
4.35650e-06	-0.0003742214767901334
4.35675e-06	-0.00037269730918911367
4.35700e-06	-0.000371173141588094
4.35725e-06	-0.0003698875671554797
4.35750e-06	-0.0003686733294787537
4.35775e-06	-0.0003674590918020277
4.35800e-06	-0.0003662448541252976
4.35825e-06	-0.00036508613677511286
4.35850e-06	-0.0003640776599459566
4.35875e-06	-0.00036308242731796956
4.35900e-06	-0.00036212303409887856
4.35925e-06	-0.00036112397502735376
4.35950e-06	-0.0003600175783606258
4.35975e-06	-0.00035885903164287853
4.36000e-06	-0.00035755936452248085
4.36025e-06	-0.00035625969740208757
4.36050e-06	-0.0003549600302816943
4.36075e-06	-0.00035366036316129655
4.36100e-06	-0.0003520922146232868
4.36125e-06	-0.0003504437930687704
4.36150e-06	-0.00034879537151424845
4.36175e-06	-0.0003471469499597321
4.36200e-06	-0.0003453953408213068
4.36225e-06	-0.0003433645014020998
4.36250e-06	-0.0003413336619828997
4.36275e-06	-0.00033930282256369954
4.36300e-06	-0.00033727198314449256
4.36325e-06	-0.00033499053152746117
4.36350e-06	-0.00033263414959580146
4.36375e-06	-0.0003302777676641497
4.36400e-06	-0.000327921385732498
4.36425e-06	-0.00032552122294015305
4.36450e-06	-0.0003230025871537041
4.36475e-06	-0.0003204839513672552
4.36500e-06	-0.0003179490387860747
4.36525e-06	-0.00031537008046036584
4.36550e-06	-0.0003127911221346569
4.36575e-06	-0.0003102184043812487
4.36600e-06	-0.0003076625738994761
4.36625e-06	-0.00030510674341770346
4.36650e-06	-0.0003025725127964279
4.36675e-06	-0.0003001860734465693
4.36700e-06	-0.00029844182007817533
4.36725e-06	-0.004734399357645683
4.36750e-06	-0.013692567940738355
4.36775e-06	-0.013380300450700811
4.36800e-06	-0.01150982718094643
4.36825e-06	-0.006909269530467708
4.36850e-06	3.83803394849681e-05
4.36875e-06	0.0011899078385666667
4.36900e-06	0.0008525313938723748
4.36925e-06	-0.0023459875841549543
4.36950e-06	-0.007885403822043438
4.36975e-06	-0.007999687556235152
4.37000e-06	-0.006696382844427891
4.37025e-06	-0.004161264404583029
4.37050e-06	-0.00015102746504117815
4.37075e-06	0.0017194984752678096
4.37100e-06	0.0014315750249651441
4.37125e-06	-0.0005213395749280102
4.37150e-06	-0.0032706767843066727
4.37175e-06	-0.004423093702050857
4.37200e-06	-0.0037481265283143177
4.37225e-06	-0.0020515574960317325
4.37250e-06	0.000123180844684635
4.37275e-06	0.0012542501975833968
4.37300e-06	0.0010356063004353564
4.37325e-06	-0.00022383869080806165
4.37350e-06	-0.001980186242727414
4.37375e-06	-0.002734466448342869
4.37400e-06	-0.002342567222710996
4.37425e-06	-0.0013094277494520086
4.37450e-06	2.4416795685727516e-05
4.37475e-06	0.0007056448493295232
4.37500e-06	0.0005425811889076796
4.37525e-06	-0.00027122232694831055
4.37550e-06	-0.0013950268964400031
4.37575e-06	-0.0018898826081028095
4.37600e-06	-0.0016655556477226372
4.37625e-06	-0.0010383564854113075
4.37650e-06	-0.00022157995532668846
4.37675e-06	0.00018767518096835358
4.37700e-06	6.944349834723081e-05
4.37725e-06	-0.0004549290642571075
4.37750e-06	-0.001171909433495639
4.37775e-06	-0.001493278329854373
4.37800e-06	-0.0013624773847951252
4.37825e-06	-0.0009775969759866314
4.37850e-06	-0.00047218676172357124
4.37875e-06	-0.0002202530857375449
4.37900e-06	-0.000297128568419268
4.37925e-06	-0.0006271345225059274
4.37950e-06	-0.0010767108324568283
4.37975e-06	-0.001277474981929631
4.38000e-06	-0.001194082048646376
4.38025e-06	-0.0009506938840347793
4.38050e-06	-0.0006310337503508069
4.38075e-06	-0.0004694315767589268
4.38100e-06	-0.0005131150661445337
4.38125e-06	-0.0007147180974505948
4.38150e-06	-0.0009906233772935806
4.38175e-06	-0.0011101351433676285
4.38200e-06	-0.0010511831526595265
4.38225e-06	-0.0008916091921348788
4.38250e-06	-0.0006839183049101617
4.38275e-06	-0.0005749459710985721
4.38300e-06	-0.000594318850743455
4.38325e-06	-0.0007124100741144043
4.38350e-06	-0.0008768887101884411
4.38375e-06	-0.0009433028447491551
4.38400e-06	-0.0008978905804117542
4.38425e-06	-0.0007894731404499769
4.38450e-06	-0.0006509969381729311
4.38475e-06	-0.0005744911204768069
4.38500e-06	-0.0005785602879862222
4.38525e-06	-0.0006446926718590712
4.38550e-06	-0.0007401570439062065
4.38575e-06	-0.0007745232338905741
4.38600e-06	-0.0007392297442413882
4.38625e-06	-0.0006649158838087028
4.38650e-06	-0.0005722747234781887
4.38675e-06	-0.0005190051223050856
4.38700e-06	-0.0005168096582936451
4.38725e-06	-0.0005541412039555125
4.38750e-06	-0.000610547092295193
4.38775e-06	-0.0006294357137902765
4.38800e-06	-0.0006055005125987237
4.38825e-06	-0.0005579898015904431
4.38850e-06	-0.0004999145609936584
4.38875e-06	-0.00046739455470218397
4.38900e-06	-0.00046751705697227605
4.38925e-06	-0.0004926875855797375
4.38950e-06	-0.0005299163807258984
4.38975e-06	-0.0005437364909753892
4.39000e-06	-0.0005308199785729776
4.39025e-06	-0.0005032196365332338
4.39050e-06	-0.00046908014672669197
4.39075e-06	-0.00045102030505322243
4.39100e-06	-0.0004534716097457859
4.39125e-06	-0.000471668998850641
4.39150e-06	-0.0004974683700825106
4.39175e-06	-0.0005086472698181581
4.39200e-06	-0.0005031163897019656
4.39225e-06	-0.0004884204052378465
4.39250e-06	-0.0004696554947222061
4.39275e-06	-0.0004609835351022756
4.39300e-06	-0.00046517306516392643
