Time(s)	Current(A)
7.25000e-06	0.0013664327333216919
7.25025e-06	0.001346326860397499
7.25050e-06	0.0013254842840580707
7.25075e-06	0.0013039033370680613
7.25100e-06	0.001282322390078125
7.25125e-06	0.0012607414430881889
7.25150e-06	0.0012391604960981795
7.25175e-06	0.0012175795491082434
7.25200e-06	0.001195998602118307
7.25225e-06	0.0011794363116124473
7.25250e-06	0.001162876858934303
7.25275e-06	0.0011463174062561587
7.25300e-06	0.0011297579535779582
7.25325e-06	0.0011131985008998142
7.25350e-06	0.0010966390482216699
7.25375e-06	0.0010835372314535248
7.25400e-06	0.0010739008755790858
7.25425e-06	0.0010642645197046466
7.25450e-06	0.001057118767752523
7.25475e-06	0.001052469256214077
7.25500e-06	0.0010478197446756152
7.25525e-06	0.001045749677837529
7.25550e-06	0.0010462648932468277
7.25575e-06	0.0010467801086561283
7.25600e-06	0.0010497662566549847
7.25625e-06	0.0010552289292163918
7.25650e-06	0.0010606916017778174
7.25675e-06	0.0010684120006899825
7.25700e-06	0.0010783952354183586
7.25725e-06	0.0010883784701467686
7.25750e-06	0.0011013916161755823
7.25775e-06	0.0011174415305036977
7.25800e-06	0.0011334914448318672
7.25825e-06	0.0011495413591599826
7.25850e-06	0.001165591273488098
7.25875e-06	0.0011816411878162677
7.25900e-06	0.0011976911021443829
7.25925e-06	0.001216043218585581
7.25950e-06	0.0012367027472582762
7.25975e-06	0.0012573622759309714
7.26000e-06	0.0012780218046037366
7.26025e-06	0.0012986813332764317
7.26050e-06	0.0013193408619491269
7.26075e-06	0.001340000390621892
7.26100e-06	0.00135986362374183
7.26125e-06	0.0013789287592108652
7.26150e-06	0.0013979938946799646
7.26175e-06	0.0014170590301489996
7.26200e-06	0.0014361241656180345
7.26225e-06	0.0014551893010871341
7.26250e-06	0.0014742544365561692
7.26275e-06	0.001493319572025204
7.26300e-06	0.00150753622085114
7.26325e-06	0.0015217501280730963
7.26350e-06	0.0015359640352951007
7.26375e-06	0.001550177942517057
7.26400e-06	0.0015643918497390134
7.26425e-06	0.0015786057569610176
7.26450e-06	0.001592819664182974
7.26475e-06	0.0016072686868578213
7.26500e-06	0.001621953357075871
7.26525e-06	0.001636638027293871
7.26550e-06	0.0016513226975118712
7.26575e-06	0.001666007367729921
7.26600e-06	0.0016806920379479208
7.26625e-06	0.0016953767081659208
7.26650e-06	0.0017100613783839706
7.26675e-06	0.0017247460486019706
7.26700e-06	0.0017394307188199707
7.26725e-06	0.0017559681146298437
7.26750e-06	0.0017729347676265282
7.26775e-06	0.0017899014206232701
7.26800e-06	0.0018068680736199546
7.26825e-06	0.001823834726616639
7.26850e-06	0.0018408013796133809
7.26875e-06	0.0018577680326100653
7.26900e-06	0.0018747346856067498
7.26925e-06	0.0018917013386034916
7.26950e-06	0.0019065475084415768
7.26975e-06	0.0019242078120097152
7.27000e-06	-0.01397720374771388
7.27025e-06	-0.03507791021996333
7.27050e-06	-0.020373583772916114
7.27075e-06	-0.009992454690779586
7.27100e-06	0.0036515829281086724
7.27125e-06	0.01627862784058526
7.27150e-06	0.017076203762492855
7.27175e-06	0.010661043676331982
7.27200e-06	0.00020615176649188343
7.27225e-06	-0.010454104331006214
7.27250e-06	-0.010419143181110828
7.27275e-06	-0.00384677842504672
7.27300e-06	0.004503994520828532
7.27325e-06	0.012135719564121189
7.27350e-06	0.012462867803444131
7.27375e-06	0.0083331837630894
7.27400e-06	0.0017084081490000489
7.27425e-06	-0.005024584071657309
7.27450e-06	-0.005046760358042027
7.27475e-06	-0.0009681643280432317
7.27500e-06	0.0042269905486425185
7.27525e-06	0.008972588427906075
7.27550e-06	0.009142755131076128
7.27575e-06	0.006521142991682393
7.27600e-06	0.0023365368655304908
7.27625e-06	-0.0019159524450723376
7.27650e-06	-0.0019650901910228565
7.27675e-06	0.0005539279086072089
7.27700e-06	0.003771718060694723
7.27725e-06	0.006707338988733315
7.27750e-06	0.00677659359753541
7.27775e-06	0.005097078687476378
7.27800e-06	0.0024387395002067455
7.27825e-06	-0.00026172788307529926
7.27850e-06	-0.00032883035220989147
7.27875e-06	0.001213070537208612
7.27900e-06	0.003193018818414882
7.27925e-06	0.004996660325168456
7.27950e-06	0.0050054655096737535
7.27975e-06	0.0039197462764217214
7.28000e-06	0.0022219921450305
7.28025e-06	0.0004990964612354957
7.28050e-06	0.0004270294324344846
7.28075e-06	0.001364130549101564
7.28100e-06	0.002576975486805526
7.28125e-06	0.0036808465040017216
7.28150e-06	0.003662074438049811
7.28175e-06	0.0029595375242280784
7.28200e-06	0.0018756350579049415
7.28225e-06	0.0007781357101326969
7.28250e-06	0.0007169389312026388
7.28275e-06	0.0012901541831813993
7.28300e-06	0.0020384475364215856
7.28325e-06	0.00272085374569417
7.28350e-06	0.0027019278919456773
7.28375e-06	0.00225564317487048
7.28400e-06	0.0015708718446584054
7.28425e-06	0.0008779126044404497
7.28450e-06	0.0008343813904052118
7.28475e-06	0.0011884764296806718
7.28500e-06	0.0016524380777897883
7.28525e-06	0.002075313069836111
7.28550e-06	0.0020590712432397005
7.28575e-06	0.0017753516161084174
7.28600e-06	0.0013424731829944395
7.28625e-06	0.0009046919257210639
7.28650e-06	0.0008739098384487081
7.28675e-06	0.0010923591667571664
7.28700e-06	0.0013797640552327783
7.28725e-06	0.0016415562238981532
7.28750e-06	0.0016284150762449626
7.28775e-06	0.0014478661476523987
7.28800e-06	0.0011740271826051053
7.28825e-06	0.0008972557852449664
7.28850e-06	0.0008755465229408276
7.28875e-06	0.001010046569883579
7.28900e-06	0.0011878134299641698
7.28925e-06	0.001349600339478894
7.28950e-06	0.0013392331471835937
7.28975e-06	0.0012240701227563165
7.29000e-06	0.0010505379443756361
7.29025e-06	0.0008752309363939674
7.29050e-06	0.0008597412362351207
7.29075e-06	0.00094212772902852
7.29100e-06	0.0010516298834623977
7.29125e-06	0.00115112680936665
7.29150e-06	0.001142788891592049
7.29175e-06	0.0010688092669434294
7.29200e-06	0.0009582665473201879
7.29225e-06	0.0008466054402826745
7.29250e-06	0.0008350349416411519
7.29275e-06	0.000884740273511413
7.29300e-06	0.0009513871069272696
7.29325e-06	0.0010117558756866246
7.29350e-06	0.0010048302383877299
7.29375e-06	0.0009574468451738191
7.29400e-06	0.0008872031496555792
7.29425e-06	0.0008189751173819884
7.29450e-06	0.0008133574318444717
7.29475e-06	0.0008469096696720752
7.29500e-06	0.0008918095134313746
7.29525e-06	0.0009334627237337171
7.29550e-06	0.0009336018180573203
7.29575e-06	0.0009089991268998277
7.29600e-06	0.0008708483125379574
7.29625e-06	0.0008339823099031961
7.29650e-06	0.000837023580499845
7.29675e-06	0.0008649956474952238
7.29700e-06	0.0009004203269564857
7.29725e-06	0.0009341067931327447
7.29750e-06	0.0009420367253014507
7.29775e-06	0.0009346712143399406
7.29800e-06	0.0009190207750309845
7.29825e-06	0.0009041786421236757
7.29850e-06	0.0009144411369590414
7.29875e-06	0.0009403141373873546
7.29900e-06	0.0009705031914742612
7.29925e-06	0.0010001569397513808
7.29950e-06	0.0010132064352275213
7.29975e-06	0.0010164815504572942
7.30000e-06	0.0010142021966635837
7.30025e-06	0.0010124140800325668
7.30050e-06	0.0010258802809278175
7.30075e-06	0.0010487333992333276
7.30100e-06	0.0010736403991305394
7.30125e-06	0.001098187669597345
7.30150e-06	0.001111572832262384
7.30175e-06	0.0011182478324204383
7.30200e-06	0.0011205153700589833
7.30225e-06	0.0011230570278315474
7.30250e-06	0.001134107378999553
7.30275e-06	0.0011502539096912487
7.30300e-06	0.0011664877352817102
7.30325e-06	0.0011823869447366115
7.30350e-06	0.0011881039847762105
7.30375e-06	0.0011936475023186996
7.30400e-06	0.001193910833776673
7.30425e-06	0.0011943882597784854
7.30450e-06	0.0012013804550457157
7.30475e-06	0.001208418083893562
7.30500e-06	0.0012168382294983214
7.30525e-06	0.0012250060574822037
7.30550e-06	0.0012254960107666677
7.30575e-06	0.00122598596405113
7.30600e-06	0.0012264411785121846
7.30625e-06	0.0012258393112983394
7.30650e-06	0.0012253124876474319
7.30675e-06	0.0012270691948538062
7.30700e-06	0.0012288259020601746
7.30725e-06	0.001230582609266543
7.30750e-06	0.0012321969883550801
7.30775e-06	0.0012294804077164182
7.30800e-06	0.0012267638270777562
7.30825e-06	0.0012240472464390849
7.30850e-06	0.0012213576675929923
7.30875e-06	0.0012194897371881504
7.30900e-06	0.0012176218067833022
7.30925e-06	0.0012157538763784602
7.30950e-06	0.0012138859459736185
7.30975e-06	0.0012119711914968538
7.31000e-06	0.0012086316084426688
7.31025e-06	0.0012052920253884727
7.31050e-06	0.0012019524423342877
7.31075e-06	0.0011986128592801027
7.31100e-06	0.0011952750355147008
7.31125e-06	0.0011919907458578728
7.31150e-06	0.0011887064562010451
7.31175e-06	0.0011854221665442062
7.31200e-06	0.0011821378768873782
7.31225e-06	0.0011788535872305503
7.31250e-06	0.001175560348030005
7.31275e-06	0.0011719947795530896
7.31300e-06	0.0011684292110761742
7.31325e-06	0.0011648636425992467
7.31350e-06	0.0011612980741223314
7.31375e-06	0.001157732505645416
7.31400e-06	0.0011540305191323726
7.31425e-06	0.0011461774131576784
7.31450e-06	0.0011383243071829577
7.31475e-06	0.0011303814341426111
7.31500e-06	0.0011197070028434411
7.31525e-06	0.0011090325715442351
7.31550e-06	0.0010982048034536658
7.31575e-06	0.001082711088271719
7.31600e-06	0.0010672173730897198
7.31625e-06	0.0010516048747385273
7.31650e-06	0.00103237787540602
7.31675e-06	0.0010131508760734473
7.31700e-06	0.0009938139622441633
7.31725e-06	0.0009711324158466561
7.31750e-06	0.0009484508694490721
7.31775e-06	0.0009256279282638391
7.31800e-06	0.0008985024280366075
7.31825e-06	0.0008713769278092839
7.31850e-06	0.0008442514275820523
7.31875e-06	0.0008171259273547287
7.31900e-06	0.0007900004271274971
7.31925e-06	0.0007614319287042596
7.31950e-06	0.0007315930942382446
7.31975e-06	0.0007017542597723308
7.32000e-06	0.0006719154253064169
7.32025e-06	0.0006420765908404019
7.32050e-06	0.0006122622299955085
7.32075e-06	0.0005831925868382955
7.32100e-06	0.000554122943680984
7.32125e-06	0.0005250533005237712
7.32150e-06	0.0004959836573665583
7.32175e-06	0.00046887817966854024
7.32200e-06	0.00044350184493385575
7.32225e-06	0.0004181255101991712
7.32250e-06	0.00039274917546440073
7.32275e-06	0.0003674959905339599
7.32300e-06	0.0003460718456514584
7.32325e-06	0.0003271327171566369
7.32350e-06	0.0003082629183021131
7.32375e-06	0.0002915421120918106
7.32400e-06	0.0002760597509335959
7.32425e-06	0.0002618881757785269
7.32450e-06	0.0002491649952938587
7.32475e-06	0.00023794905994138434
7.32500e-06	0.00022829554781098014
7.32525e-06	0.00022024810797422443
7.32550e-06	0.00021368801764548082
7.32575e-06	0.0002084152898490025
7.32600e-06	0.00020431537616878273
7.32625e-06	0.0002013956989044948
7.32650e-06	0.00019970459519581284
7.32675e-06	0.00019924104740274916
7.32700e-06	0.00020000172631506186
7.32725e-06	0.0002019911108018514
7.32750e-06	0.00020550793763870933
7.32775e-06	0.00020907881061085803
7.32800e-06	0.0002142942752363833
7.32825e-06	0.00021955945274997705
7.32850e-06	0.000226337363789512
7.32875e-06	0.00023316047343568844
7.32900e-06	0.00024135894971577418
7.32925e-06	0.0002495981587048428
7.32950e-06	0.0002590768397271762
7.32975e-06	0.0002685555207494775
7.33000e-06	0.0002780629889048819
7.33025e-06	0.000288446432346159
7.33050e-06	0.000298829875787401
7.33075e-06	0.000309213319228643
7.33100e-06	0.00031959676266992017
7.33125e-06	0.00032996360392660866
7.33150e-06	0.0003398252506123914
7.33175e-06	0.00034968689729814067
7.33200e-06	0.00035954854398388995
7.33225e-06	0.0003694101906696727
7.33250e-06	0.0003792107997015766
7.33275e-06	0.0003871540693430257
7.33300e-06	0.00039509733898450167
7.33325e-06	0.00040296965368988394
7.33350e-06	0.0004086828520238626
7.33375e-06	0.0004143960503578606
7.33400e-06	0.00042002909789431243
7.33425e-06	0.00042322320448183166
7.33450e-06	0.00042641731106936174
7.33475e-06	0.0004295278418701308
7.33500e-06	0.00043009521134360805
7.33525e-06	0.0004306625808170872
7.33550e-06	0.0004311450648220065
7.33575e-06	0.0004290445346638919
7.33600e-06	0.00042694400450578443
7.33625e-06	0.0004247648508434409
7.33650e-06	0.0004201932308565585
7.33675e-06	0.00041562161086969155
7.33700e-06	0.00041097903995941475
7.33725e-06	0.00040417747478165304
7.33750e-06	0.0003973759096039144
7.33775e-06	0.0003905139863992907
7.33800e-06	0.0003818154044485222
7.33825e-06	0.00037311682249778315
7.33850e-06	0.00036436129022391543
7.33875e-06	0.00035387279359622127
7.33900e-06	0.00034338429696856266
7.33925e-06	0.00033289580034090405
7.33950e-06	0.00032240730371320994
7.33975e-06	0.0003118867104053264
7.34000e-06	0.0003003894342686358
7.34025e-06	0.00028889215813198414
7.34050e-06	0.00027739488199533254
7.34075e-06	0.0002658976058586419
7.34100e-06	0.0002544148301960119
7.34125e-06	0.0002433732953060568
7.34150e-06	0.00023233176041606433
7.34175e-06	0.00022129022552610925
7.34200e-06	0.00021030078637045835
7.34225e-06	0.00020089658932622158
7.34250e-06	0.00019149239228201666
7.34275e-06	0.00018208819523781174
7.34300e-06	0.00017273503943803623
7.34325e-06	0.00016496407781517057
7.34350e-06	0.00015811367503626263
7.34375e-06	0.0001524269962891203
7.34400e-06	0.00014802307541409988
7.34425e-06	0.00014490574817660793
7.34450e-06	0.00014306403198232015
7.34475e-06	0.00014248618343563657
7.34500e-06	0.00014316076101907963
7.34525e-06	0.00014508742046311023
7.34550e-06	0.00014832518311334793
7.34575e-06	0.00015296731219384735
7.34600e-06	0.0001590294297773066
7.34625e-06	0.00016645491529568271
7.34650e-06	0.00017517786471276485
7.34675e-06	0.00018513197626168664
7.34700e-06	0.00019625104123662746
7.34725e-06	0.0002084931362720492
7.34750e-06	0.00022230956860094393
7.34775e-06	0.00023619124827091486
7.34800e-06	0.0002520583655976753
7.34825e-06	0.0002679898255571549
7.34850e-06	0.00028587919343937786
7.34875e-06	0.0003037685613215402
7.34900e-06	0.0003217221564560777
7.34925e-06	0.00034163014855648823
7.34950e-06	0.00036153814065683135
7.34975e-06	0.00038144613275717447
7.35000e-06	0.000401354124857585
7.35025e-06	0.0004212743163522196
7.35050e-06	0.0004415657281357658
7.35075e-06	0.00046185713991938075
7.35100e-06	0.000482148551702927
7.35125e-06	0.0005024399634864731
7.35150e-06	0.0005226785901856312
7.35175e-06	0.0005413109982619076
7.35200e-06	0.0005599434063381839
7.35225e-06	0.0005784935584954241
7.35250e-06	0.0005945407121173361
7.35275e-06	0.0006105878657393024
7.35300e-06	0.0006265348689846171
7.35325e-06	0.000639434356031142
7.35350e-06	0.0006522169792105161
7.35375e-06	0.0006614435046457403
7.35400e-06	0.0006705397548622179
7.35425e-06	0.000675671807909654
7.35450e-06	0.0006806741283780974
7.35475e-06	0.000681728763882358
7.35500e-06	0.0006826526685726698
7.35525e-06	0.0006795985126045402
7.35550e-06	0.0006764044037241266
7.35575e-06	0.0006689516112360628
7.35600e-06	0.0006613620957462569
7.35625e-06	0.0006496121808989426
7.35650e-06	0.0006377375116833
7.35675e-06	0.0006220666414853631
7.35700e-06	0.0006062820215798412
7.35725e-06	0.0005870360659524296
7.35750e-06	0.0005676822139043193
7.35775e-06	0.0005450451381596732
7.35800e-06	0.0005223138134776018
7.35825e-06	0.0004967145498691462
7.35850e-06	0.0004710253438704688
7.35875e-06	0.0004425992446123042
7.35900e-06	0.00041417314535413963
7.35925e-06	0.0003856736619359184
7.35950e-06	0.00035494114232171865
7.35975e-06	0.00032420862270751883
7.36000e-06	0.00029344488185939846
7.36025e-06	0.0002617310974975194
7.36050e-06	0.00023001731313564039
7.36075e-06	0.000198324588784249
7.36100e-06	0.00016727270798780905
7.36125e-06	0.0001362208271913691
7.36150e-06	0.0001052086776280193
7.36175e-06	7.543453003976177e-05
7.36200e-06	4.6578483851574767e-05
7.36225e-06	1.8845390654741642e-05
7.36250e-06	-7.5570564477556806e-06
7.36275e-06	-3.2421193688248e-05
7.36300e-06	-5.553940612182381e-05
7.36325e-06	-7.670510163060835e-05
7.36350e-06	-9.57321283107793e-05
7.36375e-06	-0.00011249454085145439
7.36400e-06	-0.00012693091341403002
7.36425e-06	-0.00013900481815484403
7.36450e-06	-0.00014868124177677293
7.36475e-06	-0.0001559251314940921
7.36500e-06	-0.00016070152692557074
7.36525e-06	-0.00016297608825310806
7.36550e-06	-0.00016272726862257594
7.36575e-06	-0.00015997127949429318
7.36600e-06	-0.00015476471880916892
7.36625e-06	-0.0001471798782323723
7.36650e-06	-0.000137289867512076
7.36675e-06	-0.0001251678257317005
7.36700e-06	-0.00011088693182694863
7.36725e-06	-9.452074476397084e-05
7.36750e-06	-7.615085003404299e-05
7.36775e-06	-5.588246375016521e-05
7.36800e-06	-3.384609693019548e-05
7.36825e-06	-1.0182085019511364e-05
7.36850e-06	1.4968725466218396e-05
7.36875e-06	4.146547767587785e-05
7.36900e-06	6.916731850416928e-05
7.36925e-06	9.79331452595213e-05
7.36950e-06	0.0001276261686459519
7.36975e-06	0.0001583412017086856
7.37000e-06	0.00018908350969656367
7.37025e-06	0.00022065577737581045
7.37050e-06	0.0002522280450551642
7.37075e-06	0.000283800312734411
7.37100e-06	0.00031492577703707837
7.37125e-06	0.0003456579002849145
7.37150e-06	0.0003763900235326466
7.37175e-06	0.00040705066536513517
7.37200e-06	0.00043553617039199683
7.37225e-06	0.00046393668330465653
7.37250e-06	0.0004897509369086961
7.37275e-06	0.0005154555911659879
7.37300e-06	0.0005378252027086598
7.37325e-06	0.0005601595173543468
7.37350e-06	0.0005814197684902946
7.37375e-06	0.0006026800196261704
7.37400e-06	0.0006240431747735025
7.37425e-06	0.00064853763757535
7.37450e-06	0.0006730321003771144
7.37475e-06	0.0006975845040206518
7.37500e-06	0.0007239000128966477
7.37525e-06	0.0007502155217726436
7.37550e-06	0.0007766643126108889
7.37575e-06	0.0008071687940121834
7.37600e-06	0.0008376732754134779
7.37625e-06	0.0008683261098408978
7.37650e-06	0.000903493238309451
7.37675e-06	0.0009386603667780043
7.37700e-06	0.0009739249370547331
7.37725e-06	0.0010121546033945875
7.37750e-06	0.001050384269734442
7.37775e-06	0.0010887816348950881
7.37800e-06	0.0011322819750805857
7.37825e-06	0.0011757823152660834
7.37850e-06	0.0012192826554517284
7.37875e-06	0.0012627829956372261
7.37900e-06	0.0013062833358228713
7.37925e-06	0.0013497836760083689
7.37950e-06	0.001394277755915692
7.37975e-06	0.0014396466694769398
7.38000e-06	0.0014850155830380336
7.38025e-06	0.0015303844965991274
7.38050e-06	0.0015757534101603751
7.38075e-06	0.001621122323721469
7.38100e-06	0.0016663283434856237
7.38125e-06	0.0017065776022312218
7.38150e-06	0.0017468268609766835
7.38175e-06	0.0017870761197221452
7.38200e-06	0.0018273253784677433
7.38225e-06	0.001867574637213205
7.38250e-06	0.001907407012170214
7.38275e-06	0.0019345538622620214
7.38300e-06	0.001961700712353737
7.38325e-06	0.0019888475624455447
7.38350e-06	0.0020159944125372605
7.38375e-06	0.002043141262628976
7.38400e-06	0.002069794211739938
7.38425e-06	0.0020814180487937137
7.38450e-06	0.0020930418858474895
7.38475e-06	0.0021043071830759313
7.38500e-06	0.002104662327417718
7.38525e-06	0.0021050174717595046
7.38550e-06	0.0021050032901525897
7.38575e-06	0.002093750740365227
7.38600e-06	0.0020824981905778646
7.38625e-06	0.0020709000749329124
7.38650e-06	0.0020487865965008135
7.38675e-06	0.002026673118068714
7.38700e-06	0.002004251706681652
7.38725e-06	0.001972460079274578
7.38750e-06	0.0019406684518673961
7.38775e-06	0.0019086110112180926
7.38800e-06	0.001868465032265645
7.38825e-06	0.0018283190533130613
7.38850e-06	0.001787914540314867
7.38875e-06	0.0017396429906185802
7.38900e-06	0.0016913714409221296
7.38925e-06	0.0016430998912258428
7.38950e-06	0.001594828341529556
7.38975e-06	0.0015465567918331053
7.39000e-06	0.0014961801885032505
7.39025e-06	0.001443950412032768
7.39050e-06	0.0013917206355621085
7.39075e-06	0.001339490859091626
7.39100e-06	0.0012872610826211435
7.39125e-06	0.0012351181607304115
7.39150e-06	0.0011856181718640625
7.39175e-06	0.0011361181829975457
7.39200e-06	0.0010867951607573276
7.39225e-06	0.0010428571273193503
7.39250e-06	0.0009989190938812242
7.39275e-06	0.0009551991612025726
7.39300e-06	0.0009181159044456857
7.39325e-06	0.0008811732429415798
7.39350e-06	0.000848508811061662
7.39375e-06	0.0008158443791817442
7.39400e-06	0.0007832249802307871
7.39425e-06	0.0007519759064310875
7.39450e-06	0.000720726832631388
7.39475e-06	0.0006894777588315826
7.39500e-06	0.0006583045277393991
7.39525e-06	0.0006294391449655974
7.39550e-06	0.0006005737621916979
7.39575e-06	0.0005717083794178962
7.39600e-06	0.0005428205670182828
7.39625e-06	0.0005132502344969282
7.39650e-06	0.00048367990197557354
