Time(s)	Current(A)
1.05000e-06	0.007866469156120562
1.05025e-06	0.007854022402439856
1.05050e-06	0.00784157564875914
1.05075e-06	0.007825762469579898
1.05100e-06	0.0078038456554314715
1.05125e-06	0.007781928841283026
1.05150e-06	0.0077600120271346
1.05175e-06	0.007738095212986156
1.05200e-06	0.007712646903145876
1.05225e-06	0.007680795671094029
1.05250e-06	0.007648944439042155
1.05275e-06	0.007617093206990308
1.05300e-06	0.007585241974938434
1.05325e-06	0.007553390742886587
1.05350e-06	0.007514799910648188
1.05375e-06	0.007475070536271974
1.05400e-06	0.0074353411618957605
1.05425e-06	0.007395611787519514
1.05450e-06	0.0073558824131433
1.05475e-06	0.00731509950212022
1.05500e-06	0.007272406433536414
1.05525e-06	0.007229713364952608
1.05550e-06	0.007186936977745991
1.05575e-06	0.007144009526314239
1.05600e-06	0.007101082074882452
1.05625e-06	0.007058945322698617
1.05650e-06	0.007018242180015906
1.05675e-06	0.00697753903733316
1.05700e-06	0.0069382287502760724
1.05725e-06	0.006901443836885166
1.05750e-06	0.0068646589234942915
1.05775e-06	0.006829648034633737
1.05800e-06	0.006797853613258939
1.05825e-06	0.006768054866022231
1.05850e-06	0.006741874457127194
1.05875e-06	0.00671909551721249
1.05900e-06	0.006702483749279703
1.05925e-06	0.00669032376157528
1.05950e-06	0.006686235255472718
1.05975e-06	0.006687573274718141
1.06000e-06	0.006698750076936101
1.06025e-06	0.006709926879154071
1.06050e-06	0.006727809009634897
1.06075e-06	0.006757848508838261
1.06100e-06	0.00678788800804165
1.06125e-06	0.006825172309795895
1.06150e-06	0.0068755920961200406
1.06175e-06	0.006926011882444144
1.06200e-06	0.0069808079380461845
1.06225e-06	0.007045498651438554
1.06250e-06	0.007115626618036559
1.06275e-06	0.007191076219011576
1.06300e-06	0.0072718861306139
1.06325e-06	0.007357917654153744
1.06350e-06	0.0074487409240656405
1.06375e-06	0.007543820098801884
1.06400e-06	0.00764261939869433
1.06425e-06	0.007744603747983918
1.06450e-06	0.007849272594738284
1.06475e-06	0.00795625135839653
1.06500e-06	0.008065261349225002
1.06525e-06	0.008175914481274383
1.06550e-06	0.008287639365028443
1.06575e-06	0.00839979717508074
1.06600e-06	0.008511750886790046
1.06625e-06	0.008622863475515512
1.06650e-06	0.00873251910492793
1.06675e-06	0.008840180745250916
1.06700e-06	0.008945373010484264
1.06725e-06	0.009047549514521861
1.06750e-06	0.009146050720141321
1.06775e-06	0.009240175610631618
1.06800e-06	0.0093292229619737
1.06825e-06	0.009412491695577223
1.06850e-06	0.009489565098057377
1.06875e-06	0.00956112022410188
1.06900e-06	0.009628900048485205
1.06925e-06	0.009694172294306354
1.06950e-06	0.009756986501748452
1.06975e-06	0.009816272301116785
1.07000e-06	0.009872359340527902
1.07025e-06	0.009925673028536253
1.07050e-06	0.009973958378739807
1.07075e-06	0.010020520523254986
1.07100e-06	0.010063068099285498
1.07125e-06	0.010104001589085032
1.07150e-06	0.010143263961129904
1.07175e-06	0.010179496445013633
1.07200e-06	0.010215728928897333
1.07225e-06	0.010249805226143716
1.07250e-06	0.010279972161319399
1.07275e-06	0.010308658066591729
1.07300e-06	0.010334658730229866
1.07325e-06	0.010360659393867981
1.07350e-06	0.010385264655814614
1.07375e-06	0.010407339927846824
1.07400e-06	0.010429415199879014
1.07425e-06	0.010451490471911221
1.07450e-06	0.0104695226874359
1.07475e-06	0.010486871896540182
1.07500e-06	0.010504221105644451
1.07525e-06	0.010520273555369948
1.07550e-06	0.010533974862646844
1.07575e-06	0.01054767616992373
1.07600e-06	0.010561377477200627
1.07625e-06	0.01057507878447751
1.07650e-06	0.010588780091754395
1.07675e-06	0.010601266933542942
1.07700e-06	0.01061155183917528
1.07725e-06	0.010621836744807624
1.07750e-06	0.010632121650439962
1.07775e-06	0.0106424065560723
1.07800e-06	0.010652691461704644
1.07825e-06	0.0106623115840474
1.07850e-06	0.010670726393949916
1.07875e-06	0.010679141203852424
1.07900e-06	0.010685882663417705
1.07925e-06	0.010689590186947052
1.07950e-06	0.010693297710476397
1.07975e-06	0.010697005234005748
1.08000e-06	0.010700712757535095
1.08025e-06	0.010704420281064444
1.08050e-06	0.01070812780459379
1.08075e-06	0.010705694266165447
1.08100e-06	0.010702223298570051
1.08125e-06	0.010698752330974656
1.08150e-06	0.01069528136337926
1.08175e-06	0.010691810395783867
1.08200e-06	0.010688339428188474
1.08225e-06	0.010682236265566438
1.08250e-06	0.010671360694461222
1.08275e-06	0.010660485123355998
1.08300e-06	0.010649609552250782
1.08325e-06	0.010638733981145567
1.08350e-06	0.010627858410040342
1.08375e-06	0.010616982838935128
1.08400e-06	0.010606107267829902
1.08425e-06	0.010595231696724688
1.08450e-06	0.010582993525873262
1.08475e-06	0.010568284838011503
1.08500e-06	0.010553576150149742
1.08525e-06	0.010538867462287969
1.08550e-06	0.010524158774426208
1.08575e-06	0.010509450086564434
1.08600e-06	0.010494741398702675
1.08625e-06	0.010480032710840914
1.08650e-06	0.010465324022979141
1.08675e-06	0.010451301681928697
1.08700e-06	0.010438523749940446
1.08725e-06	0.010425745817952208
1.08750e-06	0.010412967885963968
1.08775e-06	0.010400189953975717
1.08800e-06	0.010388277498319994
1.08825e-06	0.010378325551443914
1.08850e-06	0.010369293665064123
1.08875e-06	0.01036024361160172
1.08900e-06	0.010348939911786778
1.08925e-06	0.010334864833716614
1.08950e-06	0.010318359169332741
1.08975e-06	0.01029744663136061
1.09000e-06	0.010276534093388459
1.09025e-06	0.010253682217909682
1.09050e-06	0.010227314147515881
1.09075e-06	0.010198118485847462
1.09100e-06	0.0101637961445643
1.09125e-06	0.010129473803281108
1.09150e-06	0.010091469661717156
1.09175e-06	0.010046790082081694
1.09200e-06	0.010002110502446194
1.09225e-06	0.009954408766392676
1.09250e-06	0.009901227586460438
1.09275e-06	0.009848046406528246
1.09300e-06	0.00979486522659601
1.09325e-06	0.009733876561043698
1.09350e-06	0.009671568952064617
1.09375e-06	0.009609261343085483
1.09400e-06	0.009545048535952165
1.09425e-06	0.009477381431648271
1.09450e-06	0.009409714327344434
1.09475e-06	0.009341115268379097
1.09500e-06	0.009270826491027657
1.09525e-06	0.009200537713676278
1.09550e-06	0.00913012555854964
1.09575e-06	0.009059489708318788
1.09600e-06	0.008988853858087934
1.09625e-06	0.008919165743396752
1.09650e-06	0.008851195959256165
1.09675e-06	0.008784487872882845
1.09700e-06	0.008720067359074117
1.09725e-06	0.008657887840328842
1.09750e-06	0.008599771449027687
1.09775e-06	0.008541655057726532
1.09800e-06	0.008487513792400746
1.09825e-06	0.008440579791252999
1.09850e-06	0.008393645790105212
1.09875e-06	0.008350160297094554
1.09900e-06	0.008312927262324861
1.09925e-06	0.008275694227555135
1.09950e-06	0.008241007431969007
1.09975e-06	0.008210937199120655
1.10000e-06	0.00818086696627233
1.10025e-06	0.008153913180983666
1.10050e-06	0.008132609797971035
1.10075e-06	0.008111306414958422
1.10100e-06	0.008092498397109368
1.10125e-06	0.00807821470278249
1.10150e-06	0.0080639310084556
1.10175e-06	0.008049647314128723
1.10200e-06	0.008038119507400859
1.10225e-06	0.008031588375015719
1.10250e-06	0.008025057242630584
1.10275e-06	0.008018526110245444
1.10300e-06	0.008013832319026503
1.10325e-06	0.008012469794099841
1.10350e-06	0.008011107269173177
1.10375e-06	0.008011857533468981
1.10400e-06	0.008016438476382877
1.10425e-06	0.008021019419296766
1.10450e-06	0.008025600362210656
1.10475e-06	0.00803018130512455
1.10500e-06	0.00803476224803844
1.10525e-06	0.008039343190952333
1.10550e-06	0.008043924133866223
1.10575e-06	0.008049954738049826
1.10600e-06	0.008058613709687313
1.10625e-06	0.0080672726813248
1.10650e-06	0.008075931652962295
1.10675e-06	0.008084590624599782
1.10700e-06	0.008093249596237277
1.10725e-06	0.008101908567874764
1.10750e-06	0.008110567539512252
1.10775e-06	0.008119127687538212
1.10800e-06	0.008127508659387177
1.10825e-06	0.008135739657715125
1.10850e-06	0.00814372986077107
1.10875e-06	0.00815222210450294
1.10900e-06	0.00816281246129472
1.10925e-06	0.008175742012598106
1.10950e-06	0.008190383844366714
1.10975e-06	0.008208130196026012
1.11000e-06	0.008227694990422231
1.11025e-06	0.008250556786543033
1.11050e-06	0.008273418582663835
1.11075e-06	0.008298994800195008
1.11100e-06	0.008329492510105082
1.11125e-06	0.008359990220015184
1.11150e-06	0.008393485082874151
1.11175e-06	0.00843241405605222
1.11200e-06	0.00847134302923032
1.11225e-06	0.008512226734548153
1.11250e-06	0.008556654546647648
1.11275e-06	0.008602217257709752
1.11300e-06	0.008650685176075848
1.11325e-06	0.00870148430945295
1.11350e-06	0.008754408702640475
1.11375e-06	0.008809148825476367
1.11400e-06	0.008865395209677933
1.11425e-06	0.008922839587473072
1.11450e-06	0.00898120911529865
1.11475e-06	0.009040364369979447
1.11500e-06	0.009100284760329386
1.11525e-06	0.009160862537764054
1.11550e-06	0.009221818933694595
1.11575e-06	0.009282811490601268
1.11600e-06	0.009343497543656218
1.11625e-06	0.009403535235595062
1.11650e-06	0.009462604083103936
1.11675e-06	0.009520468659491925
1.11700e-06	0.009576966936300568
1.11725e-06	0.00963188213206621
1.11750e-06	0.009684891248083145
1.11775e-06	0.009735631068547187
1.11800e-06	0.009783738377654318
1.11825e-06	0.009828849628532983
1.11850e-06	0.009870580478946685
1.11875e-06	0.009908488120644855
1.11900e-06	0.009942140781842308
1.11925e-06	0.00997045495247431
1.11950e-06	0.009994318230803682
1.11975e-06	0.010013176267018932
1.12000e-06	0.01002295934500398
1.12025e-06	0.010032742422989028
1.12050e-06	0.010042525500974085
1.12075e-06	0.010045462850538592
1.12100e-06	0.010035988273156377
1.12125e-06	0.01002651369577417
1.12150e-06	0.010017039118391963
1.12175e-06	0.010001937361242033
1.12200e-06	0.009976633016448872
1.12225e-06	0.00995132867165569
1.12250e-06	0.009921784457342247
1.12275e-06	0.009884552974776844
1.12300e-06	0.00984732149221141
1.12325e-06	0.009806497156132936
1.12350e-06	0.009759158650546907
1.12375e-06	0.00971182014496092
1.12400e-06	0.009662180334870938
1.12425e-06	0.009608368050848368
1.12450e-06	0.00955320153572693
1.12475e-06	0.009495579676712848
1.12500e-06	0.009437028014975141
1.12525e-06	0.009376790536510249
1.12550e-06	0.009316142368966282
1.12575e-06	0.00925474958484763
1.12600e-06	0.009193489227679067
1.12625e-06	0.009132468972590261
1.12650e-06	0.00907211648039749
1.12675e-06	0.009012974702941684
1.12700e-06	0.008955041155872227
1.12725e-06	0.008899298240152433
1.12750e-06	0.008845363448903179
1.12775e-06	0.008794706951424652
1.12800e-06	0.008747488730525242
1.12825e-06	0.008706504417122356
1.12850e-06	0.008665520103719505
1.12875e-06	0.008624535790316652
1.12900e-06	0.00859309719683951
1.12925e-06	0.008563271192249198
1.12950e-06	0.008533445187658863
1.12975e-06	0.008507949575868447
1.13000e-06	0.008490305359251502
1.13025e-06	0.008472661142634539
1.13050e-06	0.008455016926017593
1.13075e-06	0.00843737270940063
1.13100e-06	0.008430652173901272
1.13125e-06	0.008425777010664019
1.13150e-06	0.00842090184742676
1.13175e-06	0.008416026684189505
1.13200e-06	0.008414457890829967
1.13225e-06	0.008418883846145399
1.13250e-06	0.008423309801460834
1.13275e-06	0.008429714436123004
1.13300e-06	0.008439706596026053
1.13325e-06	0.00845087437617902
1.13350e-06	0.00846417366254453
1.13375e-06	0.00847857159599519
1.13400e-06	0.00849496147632456
1.13425e-06	0.008512378989787057
1.13450e-06	0.00853165969538805
1.13475e-06	0.008551689771993162
1.13500e-06	0.008573078526241798
1.13525e-06	0.00859489419187095
1.13550e-06	0.008617483886579536
1.13575e-06	0.008640349691479194
1.13600e-06	0.008663716109215009
1.13625e-06	0.008687211808760925
1.13650e-06	0.008710941907962127
1.13675e-06	0.008734523688979185
1.13700e-06	0.00875783655566696
1.13725e-06	0.008780542575855688
1.13750e-06	0.00880214832826421
1.13775e-06	0.008823754080672715
1.13800e-06	0.008844678496422731
1.13825e-06	0.008863948455675461
1.13850e-06	0.008882115174977686
1.13875e-06	0.008899631951046153
1.13900e-06	0.00891754832989513
1.13925e-06	0.008936279555177099
1.13950e-06	0.008955579719743624
1.13975e-06	0.008975911422870055
1.14000e-06	0.008996649566377666
1.14025e-06	0.009018124623184865
1.14050e-06	0.009039599679992084
1.14075e-06	0.009061983958167845
1.14100e-06	0.009086016737205818
1.14125e-06	0.00911004951624377
1.14150e-06	0.00913531839050557
1.14175e-06	0.009162828417596301
1.14200e-06	0.00919033844468701
1.14225e-06	0.009218642812767054
1.14250e-06	0.009248387393155123
1.14275e-06	0.009278131973543192
1.14300e-06	0.00930885684442977
1.14325e-06	0.009341359070961276
1.14350e-06	0.009373861297492809
1.14375e-06	0.009406976164202446
1.14400e-06	0.009441201803158277
1.14425e-06	0.009475596452009268
1.14450e-06	0.009510352488323753
1.14475e-06	0.009545285967834554
1.14500e-06	0.00958045916539501
1.14525e-06	0.00961587050006506
1.14550e-06	0.009651380341596611
1.14575e-06	0.009686796506471943
1.14600e-06	0.009721925879850766
1.14625e-06	0.009756575739839627
1.14650e-06	0.009790573042949058
1.14675e-06	0.009823815232218404
1.14700e-06	0.009856266131496002
1.14725e-06	0.009887847683042556
1.14750e-06	0.009918397053965477
1.14775e-06	0.009947718273577218
1.14800e-06	0.009975613632304087
1.14825e-06	0.010001544297416726
1.14850e-06	0.01002572701938921
1.14875e-06	0.010048461818195447
1.14900e-06	0.010068571400887847
1.14925e-06	0.010086161836743053
1.14950e-06	0.01009918483074477
1.14975e-06	0.010112207824746476
1.15000e-06	0.010125230818748181
1.15025e-06	0.010138253812749897
1.15050e-06	0.010142529080136884
1.15075e-06	0.010145326566190459
1.15100e-06	0.010148124052244032
1.15125e-06	0.010150921538297605
1.15150e-06	0.01014961987261313
1.15175e-06	0.01014088607278878
1.15200e-06	0.010132152272964426
1.15225e-06	0.010123418473140076
1.15250e-06	0.010114684673315728
1.15275e-06	0.010105950873491372
1.15300e-06	0.010097217073667024
1.15325e-06	0.010079685918522823
1.15350e-06	0.010060668598109968
1.15375e-06	0.010041651277697098
1.15400e-06	0.010022633957284243
1.15425e-06	0.010003616636871389
1.15450e-06	0.009984599316458518
1.15475e-06	0.009964016497272146
1.15500e-06	0.009940595286724838
1.15525e-06	0.00991717407617755
1.15550e-06	0.00989344442119219
1.15575e-06	0.009869155528446198
1.15600e-06	0.009844866635700226
1.15625e-06	0.009820796247421992
1.15650e-06	0.009797122027575267
1.15675e-06	0.009773447807728541
1.15700e-06	0.009750368847022751
1.15725e-06	0.009728369145165184
1.15750e-06	0.009707408884510542
1.15775e-06	0.009688333225096409
1.15800e-06	0.009669257565682276
1.15825e-06	0.009651835036029262
1.15850e-06	0.009637409780671043
1.15875e-06	0.009622984525312812
1.15900e-06	0.009609904479467664
1.15925e-06	0.009599263420560743
1.15950e-06	0.00958862236165383
1.15975e-06	0.009577981302746917
1.16000e-06	0.009568932015780901
1.16025e-06	0.00956276875581274
1.16050e-06	0.009556605495844573
1.16075e-06	0.009550442235876411
1.16100e-06	0.009546130801272534
1.16125e-06	0.009545176894125483
1.16150e-06	0.009544222986978433
1.16175e-06	0.009543269079831383
1.16200e-06	0.009542315172684333
1.16225e-06	0.009541361265537283
1.16250e-06	0.009540407358390231
1.16275e-06	0.009539453451243182
1.16300e-06	0.009540312137976448
1.16325e-06	0.009544457221925418
1.16350e-06	0.009548602305874392
1.16375e-06	0.009552747389823361
1.16400e-06	0.009556892473772331
1.16425e-06	0.009561037557721305
1.16450e-06	0.009565182641670274
1.16475e-06	0.009569327725619248
1.16500e-06	0.00957431545880546
1.16525e-06	0.00958083099153747
1.16550e-06	0.009587346524269486
1.16575e-06	0.009593862057001495
1.16600e-06	0.00960037758973351
1.16625e-06	0.00960689312246552
1.16650e-06	0.009613563153306052
1.16675e-06	0.009620513303239556
1.16700e-06	0.009627463453173052
1.16725e-06	0.009634413603106556
1.16750e-06	0.009641363753040052
1.16775e-06	0.009648313902973556
1.16800e-06	0.009655086214548563
1.16825e-06	0.009661536089039063
1.16850e-06	0.009667690485897017
1.16875e-06	0.009673309154989672
1.16900e-06	0.009678145511874243
1.16925e-06	0.009681563465723082
1.16950e-06	0.009683530285052032
1.16975e-06	0.009682866065791815
1.17000e-06	0.0096822018465316
1.17025e-06	0.009681537627271383
1.17050e-06	0.009680873408011168
1.17075e-06	0.00967797051115843
1.17100e-06	0.009671008688648659
1.17125e-06	0.009664046866138894
1.17150e-06	0.009657085043629122
1.17175e-06	0.009650123221119357
1.17200e-06	0.00964083599240027
1.17225e-06	0.00962733259117049
1.17250e-06	0.009613829189940712
1.17275e-06	0.009600325788710921
1.17300e-06	0.009586822387481143
1.17325e-06	0.009573318986251352
1.17350e-06	0.009558001280626411
1.17375e-06	0.00953939407646731
1.17400e-06	0.009520786872308193
1.17425e-06	0.009502179668149091
1.17450e-06	0.009483572463989976
1.17475e-06	0.009464965259830874
1.17500e-06	0.009445705852942205
1.17525e-06	0.009425263943311096
1.17550e-06	0.009404822033680002
1.17575e-06	0.009384427025260407
1.17600e-06	0.009364117052994052
1.17625e-06	0.009343807080727679
1.17650e-06	0.00932397362477034
1.17675e-06	0.009305004136129714
1.17700e-06	0.009286034647489071
1.17725e-06	0.0092677270728877
1.17750e-06	0.009250619608514572
1.17775e-06	0.009234536908024175
1.17800e-06	0.009220312197460357
1.17825e-06	0.009206087486896527
1.17850e-06	0.009193501890908411
1.17875e-06	0.009183888158411506
1.17900e-06	0.009174274425914609
1.17925e-06	0.009167000015492435
1.17950e-06	0.009163967008307768
1.17975e-06	0.009160934001123104
1.18000e-06	0.009157900993938437
1.18025e-06	0.009154867986753773
1.18050e-06	0.009158922323651128
1.18075e-06	0.0091641739481691
1.18100e-06	0.009169425572687072
1.18125e-06	0.009174677197205047
1.18150e-06	0.009182271601612573
1.18175e-06	0.009194113678589678
1.18200e-06	0.00920595575556677
1.18225e-06	0.009219216014824394
1.18250e-06	0.009235047567270295
1.18275e-06	0.009251906421782129
1.18300e-06	0.009270627868177065
1.18325e-06	0.009290035617241245
1.18350e-06	0.009311096894609369
1.18375e-06	0.009333273531403192
1.18400e-06	0.009356464944784617
1.18425e-06	0.009380570551915626
1.18450e-06	0.009405487783553863
1.18475e-06	0.009431107820386864
1.18500e-06	0.009457310750780348
1.18525e-06	0.00948396492718394
1.18550e-06	0.009510937770724693
1.18575e-06	0.009538096764409141
1.18600e-06	0.009565309267484808
1.18625e-06	0.009592441893515206
1.18650e-06	0.009619361939868284
1.18675e-06	0.009645931177856093
1.18700e-06	0.009672005667096065
1.18725e-06	0.009697433809316858
1.18750e-06	0.009721875607240799
1.18775e-06	0.009745400815475586
1.18800e-06	0.009768311893728966
1.18825e-06	0.009789627795556586
1.18850e-06	0.009809615439495567
1.18875e-06	0.009828509506082004
1.18900e-06	0.009846835385007115
1.18925e-06	0.009864969776500549
1.18950e-06	0.00988287355296795
1.18975e-06	0.009900507214595735
1.19000e-06	0.009917705853692182
1.19025e-06	0.00993411575745692
1.19050e-06	0.009950525661221645
1.19075e-06	0.009966657964992067
1.19100e-06	0.009982286954777991
1.19125e-06	0.00999796190775119
1.19150e-06	0.010013720196154555
1.19175e-06	0.010029478484557907
1.19200e-06	0.010045073336033584
1.19225e-06	0.010060371861525948
1.19250e-06	0.0100756703870183
1.19275e-06	0.010090897549098622
1.19300e-06	0.010105995322835999
1.19325e-06	0.010121093096573388
1.19350e-06	0.010136190870310764
1.19375e-06	0.010151288644048139
1.19400e-06	0.010166117300548337
1.19425e-06	0.010180900494216067
1.19450e-06	0.010195683687883811
1.19475e-06	0.010210466881551541
1.19500e-06	0.010225000947019253
1.19525e-06	0.010239083320449597
1.19550e-06	0.010253165693879927
1.19575e-06	0.010267248067310272
1.19600e-06	0.010281330440740604
1.19625e-06	0.010295412814170934
1.19650e-06	0.010308906660163531
1.19675e-06	0.010321333452497054
1.19700e-06	0.010333760244830589
1.19725e-06	0.010346187037164112
1.19750e-06	0.010358613829497635
1.19775e-06	0.01037104062183117
1.19800e-06	0.010382882859535448
1.19825e-06	0.010393665246643069
1.19850e-06	0.01040415463912341
1.19875e-06	0.010414112805752494
1.19900e-06	0.010424132550913403
1.19925e-06	0.010434263943541357
1.19950e-06	0.010444510271726496
1.19975e-06	0.010454964988508272
1.20000e-06	0.010465419705290056
1.20025e-06	0.010475897927855488
1.20050e-06	0.01048641876854006
1.20075e-06	0.010496939609224641
1.20100e-06	0.010507780040282315
1.20125e-06	0.01051919991769226
1.20150e-06	0.010530619795102196
1.20175e-06	0.01054203967251213
