Time(s)	Current(A)
7.00000e-06	0.00012703743499641192
7.00025e-06	0.00015489806024379616
7.00050e-06	0.00018347374348923152
7.00075e-06	0.00021241158219111473
7.00100e-06	0.00024211911340301246
7.00125e-06	0.0002718266446149102
7.00150e-06	0.0003017831495548876
7.00175e-06	0.00033226880077787656
7.00200e-06	0.0003627544520008655
7.00225e-06	0.00039324010322395775
7.00250e-06	0.0004232539605934309
7.00275e-06	0.0004522651099021735
7.00300e-06	0.00048127625921081773
7.00325e-06	0.000510287408519462
7.00350e-06	0.000538316710525049
7.00375e-06	0.0005642592829175723
7.00400e-06	0.0005902018553100956
7.00425e-06	0.000615028301649139
7.00450e-06	0.0006374826344422705
7.00475e-06	0.0006587382876174033
7.00500e-06	0.0006774463753542073
7.00525e-06	0.0006946773921803601
7.00550e-06	0.000708769175849206
7.00575e-06	0.0007212802985510098
7.00600e-06	0.0007304320271419602
7.00625e-06	0.0007379774207469667
7.00650e-06	0.0007421088549994663
7.00675e-06	0.0007446011190862739
7.00700e-06	0.000743609638894101
7.00725e-06	0.000740937129735093
7.00750e-06	0.0007346919133803653
7.00775e-06	0.0007268333312509978
7.00800e-06	0.0007155458471658105
7.00825e-06	0.0007027614662772842
7.00850e-06	0.0006867957160691056
7.00875e-06	0.0006694450215620428
7.00900e-06	0.0006491508914807319
7.00925e-06	0.0006275781170370096
7.00950e-06	0.000603287827307176
7.00975e-06	0.0005778938155110388
7.01000e-06	0.0005501540524838879
7.01025e-06	0.0005213340281854026
7.01050e-06	0.0004902181141113194
7.01075e-06	0.0004591022000371308
7.01100e-06	0.000427091510243142
7.01125e-06	0.00039317914491823183
7.01150e-06	0.0003592667795934366
7.01175e-06	0.0003249749286166973
7.01200e-06	0.0002898765530968408
7.01225e-06	0.0002547781775771032
7.01250e-06	0.0002198837321766758
7.01275e-06	0.00018542270143999344
7.01300e-06	0.00015096167070342785
7.01325e-06	0.00011693574334736788
7.01350e-06	8.416403565926104e-05
7.01375e-06	5.249573681535887e-05
7.01400e-06	2.2161363525648616e-05
7.01425e-06	-6.607857777673823e-06
7.01450e-06	-3.358072412737715e-05
7.01475e-06	-5.852888887090373e-05
7.01500e-06	-8.125150310172604e-05
7.01525e-06	-0.00010162479653255962
7.01550e-06	-0.00011960066984827126
7.01575e-06	-0.00013514457876248677
7.01600e-06	-0.00014821006988473075
7.01625e-06	-0.00015874841816323598
7.01650e-06	-0.0001667109369622703
7.01675e-06	-0.00017205074856679845
7.01700e-06	-0.00017473819192956793
7.01725e-06	-0.00017479190028120385
7.01750e-06	-0.00017227788812889126
7.01775e-06	-0.0001672706982673533
7.01800e-06	-0.00015983738016814587
7.01825e-06	-0.000150043567041625
7.01850e-06	-0.0001379549223688674
7.01875e-06	-0.00012363821662819357
7.01900e-06	-0.00010717103106631386
7.01925e-06	-8.866118163654846e-05
7.01950e-06	-6.824616991799474e-05
7.01975e-06	-4.6068803803554804e-05
7.02000e-06	-2.226720560282121e-05
7.02025e-06	3.021389973368912e-06
7.02050e-06	2.965974966996659e-05
7.02075e-06	5.7509944646098114e-05
7.02100e-06	8.642729340713593e-05
7.02125e-06	0.0001163432652376582
7.02150e-06	0.00014699249090175043
7.02175e-06	0.0001779243680707287
7.02200e-06	0.00020945696722913927
7.02225e-06	0.00024098956638744296
7.02250e-06	0.0002725221655457467
7.02275e-06	0.00030338882006299107
7.02300e-06	0.0003341092602016695
7.02325e-06	0.00036482970034034794
7.02350e-06	0.00039482244653959845
7.02375e-06	0.00042326861773950134
7.02400e-06	0.0004508486237177637
7.02425e-06	0.0004765877603353944
7.02450e-06	0.000501197398432284
7.02475e-06	0.0005234065023500624
7.02500e-06	0.0005444076795327031
7.02525e-06	0.0005628416382903719
7.02550e-06	0.0005801968505776812
7.02575e-06	0.0005952593925114114
7.02600e-06	0.000609181428782449
7.02625e-06	0.0006206795372886906
7.02650e-06	0.0006309450693942532
7.02675e-06	0.0006385909949012026
7.02700e-06	0.0006450281090043099
7.02725e-06	0.0006488961244873316
7.02750e-06	0.0006517091305597852
7.02775e-06	0.0006522799148827046
7.02800e-06	0.0006515774032088444
7.02825e-06	0.0006481687431831865
7.02850e-06	0.0006447600831575403
7.02875e-06	0.0006399036456213469
7.02900e-06	0.0006319702324771191
7.02925e-06	0.000624036819332918
7.02950e-06	0.0006149645550117642
7.02975e-06	0.0006034718792205412
7.03000e-06	0.0005919792034293571
7.03025e-06	0.0005795665838676012
7.03050e-06	0.0005651987988732085
7.03075e-06	0.0005508310138788646
7.03100e-06	0.0005356961552561455
7.03125e-06	0.0005189310275991074
7.03150e-06	0.0005021658999421261
7.03175e-06	0.00048540077228514467
7.03200e-06	0.00046863564462810655
7.03225e-06	0.0004517019102787967
7.03250e-06	0.0004344098344882732
7.03275e-06	0.00041711775869780835
7.03300e-06	0.0003998256829073435
7.03325e-06	0.00038253360711682004
7.03350e-06	0.0003657090278352034
7.03375e-06	0.00035166639951347936
7.03400e-06	0.00033745282152222885
7.03425e-06	-0.03262675979761995
7.03450e-06	-0.03809982107983622
7.03475e-06	-0.021167969302402768
7.03500e-06	-0.005475975253475204
7.03525e-06	0.012845011154474971
7.03550e-06	0.021287911753757896
7.03575e-06	0.016753470615653347
7.03600e-06	0.0050371521441968
7.03625e-06	-0.010020930207937933
7.03650e-06	-0.01693808312135839
7.03675e-06	-0.011905322451312038
7.03700e-06	-0.0017207006000710444
7.03725e-06	0.009417068858357353
7.03750e-06	0.014463231910166961
7.03775e-06	0.011479743069188452
7.03800e-06	0.00405375270904637
7.03825e-06	-0.005433176006694362
7.03850e-06	-0.00980184335802369
7.03875e-06	-0.006674337848432275
7.03900e-06	-0.0003136108865018795
7.03925e-06	0.006647739256100356
7.03950e-06	0.009795680619069309
7.03975e-06	0.007915831515795354
7.04000e-06	0.0032550434381170357
7.04025e-06	-0.002695011815542482
7.04050e-06	-0.005437606240848345
7.04075e-06	-0.003483753858025228
7.04100e-06	0.000495788214133945
7.04125e-06	0.004851727594439732
7.04150e-06	0.006819097840291681
7.04175e-06	0.005637353891760037
7.04200e-06	0.0027140391979637306
7.04225e-06	-0.0010164510080384877
7.04250e-06	-0.0027375283161808943
7.04275e-06	-0.0015168187987844508
7.04300e-06	0.0009724291173344726
7.04325e-06	0.0036969356705754118
7.04350e-06	0.004924692129781053
7.04375e-06	0.004179359027416384
7.04400e-06	0.0023426662323247785
7.04425e-06	-1.0115087796091354e-07
7.04450e-06	-0.0010847610401824356
7.04475e-06	-0.00032751103499378386
7.04500e-06	0.0012232760947066116
7.04525e-06	0.0029201322530923984
7.04550e-06	0.0036780367571543947
7.04575e-06	0.003198706265920861
7.04600e-06	0.0020346079700107305
7.04625e-06	0.000552485930367634
7.04650e-06	-0.00014252295692504055
7.04675e-06	0.0003152634697844779
7.04700e-06	0.0012691489505517308
7.04725e-06	0.0023136121351838884
7.04750e-06	0.0027690998602953507
7.04775e-06	0.0024489100367224297
7.04800e-06	0.0016992429193795925
7.04825e-06	0.0007499361993213461
7.04850e-06	0.00029331395913430514
7.04875e-06	0.0005584653241320198
7.04900e-06	0.0011340717699784132
7.04925e-06	0.0017661810433711267
7.04950e-06	0.0020292192431637292
7.04975e-06	0.0018063587895100737
7.05000e-06	0.0013145772781293626
7.05025e-06	0.000697946739230609
7.05050e-06	0.00039021404730209264
7.05075e-06	0.00053493023918463
7.05100e-06	0.0008745011950185721
7.05125e-06	0.0012499264181251868
7.05150e-06	0.0013947213103887334
7.05175e-06	0.001235815423215785
7.05200e-06	0.0009092308456341957
7.05225e-06	0.0005053115450813724
7.05250e-06	0.00029583711233067375
7.05275e-06	0.0003707925676932311
7.05300e-06	0.000568889628545625
7.05325e-06	0.0007906109361749642
7.05350e-06	0.0008691236549703084
7.05375e-06	0.0007587592852777521
7.05400e-06	0.0005448229077300007
7.05425e-06	0.00028400058525589807
7.05450e-06	0.0001466191560227471
7.05475e-06	0.0001891192768851703
7.05500e-06	0.00031053682007562935
7.05525e-06	0.0004485673510268775
7.05550e-06	0.000498681118204622
7.05575e-06	0.000432202612598894
7.05600e-06	0.00030248186864690094
7.05625e-06	0.00014493703004316965
7.05650e-06	6.61643330834682e-05
7.05675e-06	0.00010141543871523392
7.05700e-06	0.00018734523464866514
7.05725e-06	0.00028482978556606587
7.05750e-06	0.0003283001803349578
7.05775e-06	0.0002997063330014215
7.05800e-06	0.00023237826815350888
7.05825e-06	0.00014841105359269583
7.05850e-06	0.0001144816179152737
7.05875e-06	0.00015257277416037883
7.05900e-06	0.00022290734739543512
7.05925e-06	0.0003008832371227513
7.05950e-06	0.0003453363051880414
7.05975e-06	0.00034487068491216436
7.06000e-06	0.000320274495709024
7.06025e-06	0.00028529676864915
7.06050e-06	0.0002816100972451235
7.06075e-06	0.0003228882600577775
7.06100e-06	0.0003841192243860793
7.06125e-06	0.0004497984807868253
7.06150e-06	0.0004940490543467955
7.06175e-06	0.00050964225544883
7.06200e-06	0.0005095092378939609
7.06225e-06	0.0005021709272421386
7.06250e-06	0.0005136379825290673
7.06275e-06	0.0005523810758087922
7.06300e-06	0.0006026385363134255
7.06325e-06	0.000654605421859831
7.06350e-06	0.0006919806307738315
7.06375e-06	0.0007101453558810572
7.06400e-06	0.000717108714889349
7.06425e-06	0.0007181167556000429
7.06450e-06	0.0007293700617936399
7.06475e-06	0.0007560758276363675
7.06500e-06	0.000788193522794908
7.06525e-06	0.0008193176365760012
7.06550e-06	0.0008390407736904302
7.06575e-06	0.0008444674349524637
7.06600e-06	0.0008407236008475317
7.06625e-06	0.0008312220630144623
7.06650e-06	0.0008262368975831516
7.06675e-06	0.0008291553530450174
7.06700e-06	0.0008338136876443981
7.06725e-06	0.0008363255902816525
7.06750e-06	0.0008302985144982404
7.06775e-06	0.0008140456818418915
7.06800e-06	0.0007898855008682994
7.06825e-06	0.0007623371246303258
7.06850e-06	0.0007373151159450587
7.06875e-06	0.0007156757169881111
7.06900e-06	0.0006938135558359555
7.06925e-06	0.0006709113441959254
7.06950e-06	0.0006426633593200598
7.06975e-06	0.0006072198198220804
7.07000e-06	0.0005667052269321399
7.07025e-06	0.0005240458217787506
7.07050e-06	0.00048308184222245937
7.07075e-06	0.0004444950253332464
7.07100e-06	0.00040629737217631447
7.07125e-06	0.0003677598115634199
7.07150e-06	0.00032641038848477187
7.07175e-06	0.00028142911278059544
7.07200e-06	0.00023444790633170358
7.07225e-06	0.00018676960382369448
7.07250e-06	0.00014111467378406805
7.07275e-06	9.844165799893321e-05
7.07300e-06	5.756463014483204e-05
7.07325e-06	1.7783460516862754e-05
7.07350e-06	-2.221764320846169e-05
7.07375e-06	-6.259761360898647e-05
7.07400e-06	-0.0001022804892507081
7.07425e-06	-0.0001404543304157376
7.07450e-06	-0.0001752512389922294
7.07475e-06	-0.00020587775172369155
7.07500e-06	-0.00023321535000639824
7.07525e-06	-0.00025818751295295236
7.07550e-06	-0.0002821964828267284
7.07575e-06	-0.00030563716642798786
7.07600e-06	-0.0003279175447385402
7.07625e-06	-0.0003485712665804266
7.07650e-06	-0.00036647058831385806
7.07675e-06	-0.00038116091528783713
7.07700e-06	-0.000392750556783881
7.07725e-06	-0.0004029357041867236
7.07750e-06	-0.00041232817091571864
7.07775e-06	-0.0004202114195522724
7.07800e-06	-0.00042739753364186023
7.07825e-06	-0.00043341912793724553
7.07850e-06	-0.0004365535308223659
7.07875e-06	-0.00043813560049408407
7.07900e-06	-0.00043785668437214053
7.07925e-06	-0.00043611073103112585
7.07950e-06	-0.00043357208887904216
7.07975e-06	-0.0004304085607160561
7.08000e-06	-0.00042635671494860577
7.08025e-06	-0.0004216045978558846
7.08050e-06	-0.0004154238344369264
7.08075e-06	-0.0004081168521394513
7.08100e-06	-0.00039973384519792574
7.08125e-06	-0.00039050259524089074
7.08150e-06	-0.0003812713452838245
7.08175e-06	-0.00037170629507068096
7.08200e-06	-0.00036187810614842473
7.08225e-06	-0.0003520499172261352
7.08250e-06	-0.000341664582628404
7.08275e-06	-0.00033084004347301517
7.08300e-06	-0.00032001550431758963
7.08325e-06	-0.0003094689385569135
7.08350e-06	-0.00029914150252700243
7.08375e-06	-0.0002888140664970564
7.08400e-06	-0.00027934578150663536
7.08425e-06	-0.00027055477549161276
7.08450e-06	-0.00026176376947661993
7.08475e-06	-0.0002537243782195615
7.08500e-06	-0.00024627749380908047
7.08525e-06	-0.00023963404749802327
7.08550e-06	-0.00023362396098955548
7.08575e-06	-0.00022847599832399802
7.08600e-06	-0.00022400765813014524
7.08625e-06	-0.00022033373590997496
7.08650e-06	-0.00021728606282006923
7.08675e-06	-0.00021500579208149408
7.08700e-06	-0.0002133304737369979
7.08725e-06	-0.0002124860525936196
7.08750e-06	-0.00021229663758904957
7.08775e-06	-0.00021291858228280076
7.08800e-06	-0.00021418013146969785
7.08825e-06	-0.00021615433975506577
7.08850e-06	-0.00021869034567766754
7.08875e-06	-0.0002218658162640425
7.08900e-06	-0.00022554538444485687
7.08925e-06	-0.00022999113303546868
7.08950e-06	-0.00023504087074907882
7.08975e-06	-0.00024009060846268897
7.09000e-06	-0.00024588403526676095
7.09025e-06	-0.00025226372101947564
7.09050e-06	-0.0002586434067721903
7.09075e-06	-0.00026553063361190116
7.09100e-06	-0.0002728179611225164
7.09125e-06	-0.00028010528863313156
7.09150e-06	-0.00028772293908787254
7.09175e-06	-0.00029560098704526803
7.09200e-06	-0.0003034790350026636
7.09225e-06	-0.00031141471086298126
7.09250e-06	-0.00031939581548402405
7.09275e-06	-0.0003273769201050939
7.09300e-06	-0.0003351631704811857
7.09325e-06	-0.00034279581494017005
7.09350e-06	-0.0003504284593991802
7.09375e-06	-0.00035761110387689355
7.09400e-06	-0.00036443900802119556
7.09425e-06	-0.0003712669121655207
7.09450e-06	-0.00037748591510312364
7.09475e-06	-0.0003832249139828022
7.09500e-06	-0.0003879765813745039
7.09525e-06	-0.00039194992361994853
7.09550e-06	-0.0003941251646286064
7.09575e-06	-0.00039488294106221095
7.09600e-06	-0.0003937916934382965
7.09625e-06	-0.00039124283817455665
7.09650e-06	-0.00038694774841405453
7.09675e-06	-0.00038127608124613764
7.09700e-06	-0.0003742776378049026
7.09725e-06	-0.00036518823195849615
7.09750e-06	-0.0003541681748500598
7.09775e-06	-0.00034120948495942427
7.09800e-06	-0.0003264105798138455
7.09825e-06	-0.000309890090071337
7.09850e-06	-0.00029176276617549354
7.09875e-06	-0.00027214333912450585
7.09900e-06	-0.00025109734548738884
7.09925e-06	-0.00022859543780858577
7.09950e-06	-0.00020461582856846146
7.09975e-06	-0.00017924060830517741
7.10000e-06	-0.00015261846215655636
7.10025e-06	-0.00012491073581969605
7.10050e-06	-9.627635728134723e-05
7.10075e-06	-6.687420216412058e-05
7.10100e-06	-3.683233721462985e-05
7.10125e-06	-6.219391018918429e-06
7.10150e-06	2.4891279880126832e-05
7.10175e-06	5.638006323509748e-05
7.10200e-06	8.800900023002548e-05
7.10225e-06	0.00011963793722484632
7.10250e-06	0.00015096584125527193
7.10275e-06	0.0001820564374222823
7.10300e-06	0.00021246914896718832
7.10325e-06	0.0002423474760081214
7.10350e-06	0.0002712321652034558
7.10375e-06	0.000299333557875853
7.10400e-06	0.00032600863147112455
7.10425e-06	0.0003515593207866345
7.10450e-06	0.0003752311142523212
7.10475e-06	0.00039742175178959945
7.10500e-06	0.00041760874151739315
7.10525e-06	0.00043621623186416015
7.10550e-06	0.0004532045018254233
7.10575e-06	0.0004689163211128128
7.10600e-06	0.0004829381260644451
7.10625e-06	0.0004956276726300133
7.10650e-06	0.0005064393974608741
7.10675e-06	0.0005157708131010644
7.10700e-06	0.0005232419915728591
7.10725e-06	0.0005292467229765229
7.10750e-06	0.000533727691906059
7.10775e-06	0.0005370074607679004
7.10800e-06	0.0005384418130798304
7.10825e-06	0.0005384214015934035
7.10850e-06	0.0005384009901069764
7.10875e-06	0.000536208858920902
7.10900e-06	0.0005323047352855603
7.10925e-06	0.0005284006116502054
7.10950e-06	0.0005228360145568922
7.10975e-06	0.0005159624465025804
7.11000e-06	0.0005090888784482917
7.11025e-06	0.0005008462476192756
7.11050e-06	0.0004915243683341668
7.11075e-06	0.0004822024890490895
7.11100e-06	0.0004716623050117634
7.11125e-06	0.0004601617168591668
7.11150e-06	0.0004486611287066092
7.11175e-06	0.0004371605405540516
7.11200e-06	0.000425659952401455
7.11225e-06	0.0004137375755210873
7.11250e-06	0.0004014826975738164
7.11275e-06	0.00038922781962650406
7.11300e-06	0.0003769729416792332
7.11325e-06	0.0003647180637319623
7.11350e-06	0.0003530198388862751
7.11375e-06	0.0003417604302962017
7.11400e-06	0.0003305010217060902
7.11425e-06	0.0003202498220384526
7.11450e-06	0.0003107934054464507
7.11475e-06	0.00030133698885441673
7.11500e-06	0.00029302987542628554
7.11525e-06	0.00028562877134113816
7.11550e-06	0.00027929526443663404
7.11575e-06	0.00027380335707753316
7.11600e-06	0.00026941622592880715
7.11625e-06	0.0002659000029964193
7.11650e-06	0.0002635165402278418
7.11675e-06	0.0002620260457586611
7.11700e-06	0.00026169462727338843
7.11725e-06	0.00026227692216125153
7.11750e-06	0.0002640027102267487
7.11775e-06	0.0002666299275540022
7.11800e-06	0.0002703347020383761
7.11825e-06	0.00027488892763592217
7.11850e-06	0.00028044906203064673
7.11875e-06	0.0002868021662848776
7.11900e-06	0.0002940884731357526
7.11925e-06	0.00030211043468411826
7.11950e-06	0.0003111481537972385
7.11975e-06	0.00032098660667040244
7.12000e-06	0.00033082505954353306
7.12025e-06	0.0003416186394385586
7.12050e-06	0.00035316515731612677
7.12075e-06	0.00036471167519365585
7.12100e-06	0.00037704142912710944
7.12125e-06	0.0003899886173518008
7.12150e-06	0.00040293580557644826
7.12175e-06	0.0004158829938010957
7.12200e-06	0.000428830182025787
7.12225e-06	0.0004417722514401421
7.12250e-06	0.00045463295366391884
7.12275e-06	0.000467493655887652
7.12300e-06	0.00048035435811138517
7.12325e-06	0.000493215060335162
7.12350e-06	0.0005060757625588951
7.12375e-06	0.0005175133865442979
7.12400e-06	0.000527829181042058
7.12425e-06	0.0005381449755397832
7.12450e-06	0.0005484607700375084
7.12475e-06	0.0005587765645352686
7.12500e-06	0.0005689638344258077
7.12525e-06	0.0005771081127590786
7.12550e-06	0.000585252391092377
7.12575e-06	0.0005933966694256479
7.12600e-06	0.0006015409477589188
7.12625e-06	0.0006096852260922173
7.12650e-06	0.0006175300218157787
7.12675e-06	0.0006251387318389798
7.12700e-06	0.0006327474418621553
7.12725e-06	0.0006403561518853306
7.12750e-06	0.0006479648619085319
7.12775e-06	0.0006555735719317072
7.12800e-06	0.0006631822819548826
7.12825e-06	0.0006707909919780838
7.12850e-06	0.0006783997020012592
7.12875e-06	0.0006860084120244345
7.12900e-06	0.0006936171220476358
7.12925e-06	0.0007012258320708111
7.12950e-06	0.0007088345420939865
7.12975e-06	0.0007164432521171877
7.13000e-06	0.0007239793524241447
7.13025e-06	0.0007314582136288923
7.13050e-06	0.0007389370748336653
7.13075e-06	0.000746415936038413
7.13100e-06	0.0007538947972431859
7.13125e-06	0.0007613736584479335
7.13150e-06	0.0007688525196526812
7.13175e-06	0.0007763313808574542
7.13200e-06	0.0007838102420622018
7.13225e-06	0.0007912891032669495
7.13250e-06	0.0007987679644717225
7.13275e-06	0.0008062468256764701
7.13300e-06	0.0008137256868812178
7.13325e-06	0.0008212045480859907
7.13350e-06	0.0008276663788297116
7.13375e-06	0.0008333264723743837
7.13400e-06	0.0008389865659190747
7.13425e-06	0.0008446466594637466
7.13450e-06	0.0008503067530084186
7.13475e-06	0.0008559668465531097
7.13500e-06	0.0008590454129355356
7.13525e-06	0.0008600889307765653
7.13550e-06	0.0008611324486175914
7.13575e-06	0.0008621759664586176
7.13600e-06	0.0008632194842996474
7.13625e-06	0.0008642630021406736
7.13650e-06	0.000862265022011897
7.13675e-06	0.0008578693928877871
7.13700e-06	0.000853473763763692
7.13725e-06	0.0008468022257740809
7.13750e-06	0.0008383365617784585
7.13775e-06	0.0008298708977828647
7.13800e-06	0.0008191635121611449
7.13825e-06	0.0008066889507405228
7.13850e-06	0.0007942143893199432
7.13875e-06	0.0007798581301276026
7.13900e-06	0.0007640185062193471
7.13925e-06	0.0007481788823111452
7.13950e-06	0.0007300337319721887
7.13975e-06	0.0007100711077487878
7.14000e-06	0.0006901084835253869
7.14025e-06	0.0006701458593019182
7.14050e-06	0.0006501832350785172
7.14075e-06	0.0006300488150125311
7.14100e-06	0.0006071835758203216
7.14125e-06	0.0005843183366281896
7.14150e-06	0.0005614530974360577
7.14175e-06	0.0005385878582438483
7.14200e-06	0.0005157226190517163
7.14225e-06	0.000492907029161837
7.14250e-06	0.0004701305784068836
7.14275e-06	0.0004473541276520074
7.14300e-06	0.00042457767689713116
7.14325e-06	0.0004019645906817522
7.14350e-06	0.00038194830193478355
7.14375e-06	0.00036193201318774704
7.14400e-06	0.0003419157244407784
7.14425e-06	0.00032189943569380975
7.14450e-06	0.00030389907294147746
7.14475e-06	0.00028748788860821263
