Time(s)	Current(A)
4.30000e-06	0.002098851494830564
4.30025e-06	0.0020749159458693964
4.30050e-06	0.0020509803969081474
4.30075e-06	0.002027044847946979
4.30100e-06	0.0020031092989858112
4.30125e-06	0.00197934420055839
4.30150e-06	0.001956686426169605
4.30175e-06	0.0019340286517808196
4.30200e-06	0.0019113708773919578
4.30225e-06	0.0018887131030031728
4.30250e-06	0.0018660553286143878
4.30275e-06	0.001843397554225526
4.30300e-06	0.001820739779836741
4.30325e-06	0.00180637930713646
4.30350e-06	0.0017968212308646727
4.30375e-06	0.0017872631545928855
4.30400e-06	0.0017777050783210659
4.30425e-06	0.0017681470020492786
4.30450e-06	0.0017585889257774913
4.30475e-06	0.0017490308495056715
4.30500e-06	0.0017394727732338842
4.30525e-06	0.001729914696962097
4.30550e-06	0.0017203566206902773
4.30575e-06	0.00171079854441849
4.30600e-06	0.0017012404681467027
4.30625e-06	0.001703527941123113
4.30650e-06	0.0017126715012389818
4.30675e-06	0.0017218150613548507
4.30700e-06	0.0017309586214707506
4.30725e-06	0.0017401021815866193
4.30750e-06	0.0017492457417025192
4.30775e-06	0.001758389301818388
4.30800e-06	0.0017675328619342569
4.30825e-06	0.0017766764220501568
4.30850e-06	0.0017858199821660255
4.30875e-06	0.0017949635422818944
4.30900e-06	0.0018041071023977943
4.30925e-06	0.0018192358739818491
4.30950e-06	0.001837828826965303
4.30975e-06	0.00185642177994882
4.31000e-06	0.0018750147329322738
4.31025e-06	0.0018936076859157277
4.31050e-06	0.0019122006388992445
4.31075e-06	0.0019307935918826983
4.31100e-06	0.0019493865448661522
4.31125e-06	0.001967656916706415
4.31150e-06	0.0019857405817607066
4.31175e-06	0.0020038242468150597
4.31200e-06	0.002021907911869351
4.31225e-06	0.0020399915769236427
4.31250e-06	0.0020580752419779953
4.31275e-06	0.0020761589070322868
4.31300e-06	0.0020942425720865783
4.31325e-06	0.002103355793642993
4.31350e-06	0.0021072770109280894
4.31375e-06	0.002111198228213186
4.31400e-06	0.0021151194454982957
4.31425e-06	0.0021190406627833924
4.31450e-06	0.002122961880068489
4.31475e-06	0.002126883097353599
4.31500e-06	0.0021308043146386958
4.31525e-06	0.0021347255319237924
4.31550e-06	0.0021386467492089025
4.31575e-06	0.002142567966493999
4.31600e-06	0.002146489183779109
4.31625e-06	0.0021344369106343236
4.31650e-06	0.0021131393386865254
4.31675e-06	0.0020918417667386553
4.31700e-06	0.002070544194790857
4.31725e-06	0.002049246622843059
4.31750e-06	0.0020279490508951885
4.31775e-06	0.0020066514789473903
4.31800e-06	0.001985353906999592
4.31825e-06	0.001964056335051722
4.31850e-06	0.001942758763103924
4.31875e-06	0.0019214611911561258
4.31900e-06	0.0019001636192082555
4.31925e-06	0.0018707712042444835
4.31950e-06	0.0018366935739378089
4.31975e-06	0.0018026159436310188
4.32000e-06	0.0017685383133243444
4.32025e-06	0.0017344606830175541
4.32050e-06	0.0017003830527108797
4.32075e-06	0.001666260688217765
4.32100e-06	0.001631847710143932
4.32125e-06	0.0015974347320702157
4.32150e-06	0.0015630217539964993
4.32175e-06	0.0015286087759226663
4.32200e-06	0.00149419579784895
4.32225e-06	0.0014597828197752336
4.32250e-06	0.0014312399224149321
4.32275e-06	0.0014060945699072955
4.32300e-06	0.0013809492173996588
4.32325e-06	0.001355803864891937
4.32350e-06	0.0013306585123843003
4.32375e-06	0.0013055131598766637
4.32400e-06	0.0012803678073689418
4.32425e-06	0.0012577148590977472
4.32450e-06	0.0012512537000820534
4.32475e-06	0.0012447925410663378
4.32500e-06	0.0012383313820506438
4.32525e-06	0.0012318702230349281
4.32550e-06	0.0012254090640192344
4.32575e-06	0.0012189479050035406
4.32600e-06	0.001212486745987825
4.32625e-06	0.0012152567474613294
4.32650e-06	0.001223369653629234
4.32675e-06	0.001231482559797166
4.32700e-06	0.001244389332556037
4.32725e-06	0.0012600707480418761
4.32750e-06	0.0012757521635277684
4.32775e-06	0.0012957149239747954
4.32800e-06	0.0013181556846816572
4.32825e-06	0.001340596445388595
4.32850e-06	0.0013680664318847875
4.32875e-06	0.0013984472846918063
4.32900e-06	0.001428828137498928
4.32925e-06	0.0014592089903059467
4.32950e-06	0.0014895898431130684
4.32975e-06	0.001519970695920087
4.33000e-06	0.0015509959561030785
4.33025e-06	0.0015862075791047642
4.33050e-06	0.0016214192021063304
4.33075e-06	0.0016566308251078968
4.33100e-06	0.0016918424481095823
4.33125e-06	0.0017270540711111487
4.33150e-06	0.001762265694112715
4.33175e-06	0.0017921813106914087
4.33200e-06	0.001819031650958431
4.33225e-06	0.0018458819912254535
4.33250e-06	0.001872732331492567
4.33275e-06	0.0018995826717595893
4.33300e-06	0.0019264330120266119
4.33325e-06	0.001953283352293725
4.33350e-06	0.0019801336925607477
4.33375e-06	0.002006984032827861
4.33400e-06	0.0020338343730948835
4.33425e-06	0.002060684713361906
4.33450e-06	0.0020875350536290194
4.33475e-06	0.0021036227837757954
4.33500e-06	0.002113481221279173
4.33525e-06	0.002123339658782584
4.33550e-06	0.0021331980962859616
4.33575e-06	0.002143056533789339
4.33600e-06	0.0021529149712927504
4.33625e-06	0.002162773408796128
4.33650e-06	0.0021726318462995053
4.33675e-06	0.0021824902838029165
4.33700e-06	0.002192348721306294
4.33725e-06	0.0022022071588096714
4.33750e-06	0.0022120655963130827
4.33775e-06	0.0022151298232897143
4.33800e-06	0.002214261628188741
4.33825e-06	0.00221339343308777
4.33850e-06	0.0022125252379867994
4.33875e-06	0.0022116570428858257
4.33900e-06	0.002210788847784855
4.33925e-06	0.002209920652683884
4.33950e-06	0.0022090524575829103
4.33975e-06	0.0022081842624819396
4.34000e-06	0.002207316067380969
4.34025e-06	0.002206447872279995
4.34050e-06	0.0022051218303862355
4.34075e-06	0.002200821407905662
4.34100e-06	0.002196520985425074
4.34125e-06	0.0021922205629445004
4.34150e-06	0.002187920140463927
4.34175e-06	0.002183619717983339
4.34200e-06	0.0021793192955027654
4.34225e-06	0.0021750188730221775
4.34250e-06	0.002170718450541604
4.34275e-06	0.0021664180280610307
4.34300e-06	0.0021621176055804424
4.34325e-06	0.0021578171830998693
4.34350e-06	0.00215340845179853
4.34375e-06	0.0021489370324193997
4.34400e-06	0.0021444656130402847
4.34425e-06	0.0021399941936611697
4.34450e-06	0.0021355227742820395
4.34475e-06	0.0021287593420503117
4.34500e-06	0.002120669315373657
4.34525e-06	0.0021125792886969746
4.34550e-06	0.00210448926202032
4.34575e-06	0.0020963992353436652
4.34600e-06	0.0020867795188939026
4.34625e-06	0.002072963580713992
4.34650e-06	0.0020572313538206326
4.34675e-06	0.0020414991269273267
4.34700e-06	0.0020257669000340213
4.34725e-06	0.002010034673140662
4.34750e-06	0.0019943024462473562
4.34775e-06	0.0019785702193540504
4.34800e-06	0.0019628379924606916
4.34825e-06	0.0019471057655673857
4.34850e-06	0.0019313735386740799
4.34875e-06	0.0019120592987976574
4.34900e-06	0.0018906718251175784
4.34925e-06	0.0018692843514374995
4.34950e-06	0.0018478968777573478
4.34975e-06	0.0018265094040772689
4.35000e-06	0.0018051219303971899
4.35025e-06	0.0017837344567170385
4.35050e-06	0.0017623469830369595
4.35075e-06	0.001740959509356808
4.35100e-06	0.001719572035676729
4.35125e-06	0.0016993396343928555
4.35150e-06	0.0016797757776252987
4.35175e-06	0.0016602119208578082
4.35200e-06	0.0016406480640903177
4.35225e-06	0.0016210842073227608
4.35250e-06	0.0016015203505552703
4.35275e-06	0.0015819564937877798
4.35300e-06	0.0015623926370202232
4.35325e-06	0.0015460501674635105
4.35350e-06	0.0015315722050683342
4.35375e-06	0.0015170942426731087
4.35400e-06	0.0015026162802779324
4.35425e-06	0.001488138317882756
4.35450e-06	0.0014736603554875308
4.35475e-06	0.0014591823930923545
4.35500e-06	0.0014447044306971292
4.35525e-06	0.0014299322820661767
4.35550e-06	0.0014149898613420183
4.35575e-06	0.0014000474406178091
4.35600e-06	0.0013851050198936507
4.35625e-06	0.001370162599169492
4.35650e-06	0.001355220178445283
4.35675e-06	0.0013402777577211245
4.35700e-06	0.001325335336996966
4.35725e-06	0.001310392916272757
4.35750e-06	0.0012954504955485985
4.35775e-06	0.00128050807482444
4.35800e-06	0.0012655656541002308
4.35825e-06	0.0012492074943763268
4.35850e-06	0.0012320299188756448
4.35875e-06	0.0012148523433749047
4.35900e-06	0.0011976747678742227
4.35925e-06	0.0011804971923734826
4.35950e-06	0.0011633196168728006
4.35975e-06	0.0011461420413721186
4.36000e-06	0.0011289644658713782
4.36025e-06	0.0011117868903706962
4.36050e-06	0.0010946093148700143
4.36075e-06	0.0010774317393692741
4.36100e-06	0.0010602541638685921
4.36125e-06	0.001045135345135338
4.36150e-06	0.0010312081145238475
4.36175e-06	0.001017280883912404
4.36200e-06	0.0010033536533009604
4.36225e-06	0.0009894264226894696
4.36250e-06	0.0009754991920780261
4.36275e-06	0.0009615719614665826
4.36300e-06	0.0009476447308550919
4.36325e-06	0.0009337175002436484
4.36350e-06	0.0009197902696321577
4.36375e-06	0.0009058630390207142
4.36400e-06	0.0008958752369223041
4.36425e-06	0.0008881675372122827
4.36450e-06	0.0008804598375022875
4.36475e-06	0.0008727521377922923
4.36500e-06	0.0008650444380822709
4.36525e-06	0.0008573367383722757
4.36550e-06	0.0008496290386622805
4.36575e-06	0.0008419213389522592
4.36600e-06	0.0008342136392422639
4.36625e-06	0.0008265059395322687
4.36650e-06	0.0008187982398222474
4.36675e-06	0.0008134144610993264
4.36700e-06	0.0008093757449344073
4.36725e-06	0.0008053370287694746
4.36750e-06	0.0008012983126045556
4.36775e-06	0.0007972595964396229
4.36800e-06	0.0007932208802747038
4.36825e-06	0.0007891821641097847
4.36850e-06	0.0007851434479448521
4.36875e-06	0.000781104731779933
4.36900e-06	0.0007770660156150139
4.36925e-06	0.0007730272994500812
4.36950e-06	0.0007689885832851622
4.36975e-06	0.0007649498671202431
4.37000e-06	0.0007621760135595957
4.37025e-06	0.0007601342500051969
4.37050e-06	0.000758092486450798
4.37075e-06	0.0007560507228963922
4.37100e-06	0.0007540089593419935
4.37125e-06	0.0007519671957875946
4.37150e-06	0.0007499254322331888
4.37175e-06	0.00074788366867879
4.37200e-06	0.0007458419051243842
4.37225e-06	0.0007438001415699854
4.37250e-06	0.0007417583780155866
4.37275e-06	0.0007397166144611808
4.37300e-06	0.000737674850906782
4.37325e-06	0.0007362471411137633
4.37350e-06	0.0007351748395844118
4.37375e-06	0.0007341025380550639
4.37400e-06	0.0007352511779267318
4.37425e-06	0.0007376852767869889
4.37450e-06	0.0007431030714897061
4.37475e-06	0.0007502477999323602
4.37500e-06	0.0007600941062782841
4.37525e-06	0.0007715040592820334
4.37550e-06	0.000785433828369838
4.37575e-06	0.0008008220421664312
4.37600e-06	0.0008194943749664626
4.37625e-06	0.0008400675234704319
4.37650e-06	0.0008641318261696599
4.37675e-06	0.0008902167745007775
4.37700e-06	0.0009192778606272673
4.37725e-06	0.0009500615059703027
4.37750e-06	0.0009840282444186434
4.37775e-06	0.0010198373257769787
4.37800e-06	0.0010556464071351931
4.37825e-06	0.0010953272241638785
4.37850e-06	0.001137248963630509
4.37875e-06	0.0011791707030969973
4.37900e-06	0.0012245988357484443
4.37925e-06	0.0012720564342088225
4.37950e-06	0.0013195140326690397
4.37975e-06	0.0013669716311292572
4.38000e-06	0.0014144292295896353
4.38025e-06	0.0014618868280498526
4.38050e-06	0.0015102036597320742
4.38075e-06	0.0015590178071324334
4.38100e-06	0.0016078319545327928
4.38125e-06	0.0016566461019333176
4.38150e-06	0.0017054602493336768
4.38175e-06	0.0017542743967340361
4.38200e-06	0.0017959190255759819
4.38225e-06	0.0018334140077548222
4.38250e-06	0.0018709089899336625
4.38275e-06	0.00190840397211263
4.38300e-06	0.0019458989542914702
4.38325e-06	0.0019833939364703105
4.38350e-06	0.002020888918649278
4.38375e-06	0.0020583839008281183
4.38400e-06	0.002095878883006959
4.38425e-06	0.0021172001110747636
4.38450e-06	0.002129160129707904
4.38475e-06	0.002141120148341085
4.38500e-06	0.0021530801669742256
4.38525e-06	0.002165040185607366
4.38550e-06	0.002177000204240547
4.38575e-06	0.002188960222873687
4.38600e-06	0.002200920241506828
4.38625e-06	0.002212880260140009
4.38650e-06	0.0022098401349613375
4.38675e-06	0.002198118074420023
4.38700e-06	0.002186396013878669
4.38725e-06	0.002174673953337354
4.38750e-06	0.0021629518927960396
4.38775e-06	0.0021512298322546855
4.38800e-06	0.002139507771713371
4.38825e-06	0.0021257656735638266
4.38850e-06	0.002098900494223697
4.38875e-06	0.0020720353148836585
4.38900e-06	0.002045170135543529
4.38925e-06	0.0020183049562034904
4.38950e-06	0.001991439776863452
4.38975e-06	0.0019645745975233222
4.39000e-06	0.0019377094181832835
4.39025e-06	0.0019072114059085893
4.39050e-06	0.001874610745744848
4.39075e-06	0.0018420100855812166
4.39100e-06	0.0018094094254175856
4.39125e-06	0.001776808765253844
4.39150e-06	0.001744208105090213
4.39175e-06	0.0017121066644959937
4.39200e-06	0.001683248380817977
4.39225e-06	0.001654390097140058
4.39250e-06	0.0016255318134621392
4.39275e-06	0.0015966735297841224
4.39300e-06	0.0015678152461062035
4.39325e-06	0.0015389569624281868
4.39350e-06	0.0015154050499574577
4.39375e-06	0.0014949244128293034
4.39400e-06	0.0014744437757010795
4.39425e-06	0.0014587755377439733
4.39450e-06	0.0014458926689846392
4.39475e-06	0.0014330098002252616
4.39500e-06	0.0014252056442693507
4.39525e-06	0.0014203409972161686
4.39550e-06	0.00141547635016297
4.39575e-06	0.0014158540384190583
4.39600e-06	0.0014192659386711621
4.39625e-06	0.0014226778389232776
4.39650e-06	0.0014311549826783948
4.39675e-06	0.0014425638394378636
4.39700e-06	0.001453972696197371
4.39725e-06	0.0014699510131393262
4.39750e-06	0.0014885740885873658
4.39775e-06	0.0015071971640353424
4.39800e-06	0.001531914817040377
4.39825e-06	0.0015601599514526508
4.39850e-06	0.0015884050858648287
4.39875e-06	0.0016166502202770066
4.39900e-06	0.0016448953546892803
4.39925e-06	0.0016731404891014584
4.39950e-06	0.0017013856235136363
4.39975e-06	0.0017340535586346146
4.40000e-06	0.0017692813672037734
4.40025e-06	0.0018045091757729322
4.40050e-06	0.0018397369843422104
4.40075e-06	0.0018749647929113692
4.40100e-06	0.0019101926014805282
4.40125e-06	0.0019454204100498064
4.40150e-06	0.0019775986295771605
4.40175e-06	0.002008011777031468
4.40200e-06	0.0020384249244856725
4.40225e-06	0.002068838071939877
4.40250e-06	0.0020992512193941846
4.40275e-06	0.0021296643668483888
4.40300e-06	0.0021600775143025934
4.40325e-06	0.002190490661756901
4.40350e-06	0.0022209038092111054
4.40375e-06	0.002248952838222784
4.40400e-06	0.0022616434807773336
4.40425e-06	0.0022743341233318402
4.40450e-06	0.002287024765886347
4.40475e-06	0.002299715408440897
4.40500e-06	0.0023124060509954036
4.40525e-06	0.0023250966935499102
4.40550e-06	0.0023377873361044603
4.40575e-06	0.002350477978658967
4.40600e-06	0.0023631686212135165
4.40625e-06	0.0023642991577322294
4.40650e-06	0.0023587388188429327
4.40675e-06	0.0023531784799536173
4.40700e-06	0.0023476181410643205
4.40725e-06	0.0023420578021750237
4.40750e-06	0.0023364974632857083
4.40775e-06	0.0023309371243964115
4.40800e-06	0.002325376785507115
4.40825e-06	0.0023198164466177993
4.40850e-06	0.002312709815762505
4.40875e-06	0.0022955577704482527
4.40900e-06	0.0022784057251339423
4.40925e-06	0.0022612536798196897
4.40950e-06	0.0022441016345054374
4.40975e-06	0.002226949589191127
4.41000e-06	0.002209797543876875
4.41025e-06	0.0021926454985625645
4.41050e-06	0.0021754934532483123
4.41075e-06	0.00215834140793406
4.41100e-06	0.0021404153254397816
4.41125e-06	0.0021220412378567008
4.41150e-06	0.0021036671502736195
4.41175e-06	0.0020852930626904767
4.41200e-06	0.002066918975107396
4.41225e-06	0.0020485448875243147
4.41250e-06	0.002030170799941172
4.41275e-06	0.002011796712358091
4.41300e-06	0.0019934226247750103
4.41325e-06	0.001976238213985773
4.41350e-06	0.00196678248363146
4.41375e-06	0.001957326753277146
4.41400e-06	0.0019478710229228003
4.41425e-06	0.0019384152925684866
4.41450e-06	0.0019289595622141407
4.41475e-06	0.0019195038318598273
4.41500e-06	0.0019100481015055135
4.41525e-06	0.0019005923711511677
4.41550e-06	0.001891136640796854
4.41575e-06	0.0018893173022884483
4.41600e-06	0.0018919178320961215
4.41625e-06	0.0018945183619037862
4.41650e-06	0.0018971188917114507
4.41675e-06	0.0018997194215191239
4.41700e-06	0.0019023199513267886
4.41725e-06	0.001904920481134453
4.41750e-06	0.0019075210109421262
4.41775e-06	0.001910121540749791
4.41800e-06	0.0019127220705574554
4.41825e-06	0.0019164444978915873
4.41850e-06	0.0019274552807734473
4.41875e-06	0.0019384660636553443
4.41900e-06	0.0019494768465372042
4.41925e-06	0.001960487629419064
4.41950e-06	0.001971498412300961
4.41975e-06	0.001982509195182821
4.42000e-06	0.001993519978064681
4.42025e-06	0.0020045307609465783
4.42050e-06	0.002015541543828438
4.42075e-06	0.0020265523267102977
4.42100e-06	0.0020384466142409317
4.42125e-06	0.002050852265552014
4.42150e-06	0.0020632579168630965
4.42175e-06	0.002075663568174221
4.42200e-06	0.0020880692194853038
4.42225e-06	0.002100474870796386
4.42250e-06	0.0021128805221075106
4.42275e-06	0.002124533805752897
4.42300e-06	0.002131299367552127
4.42325e-06	0.0021380649293513336
4.42350e-06	0.0021448304911505407
4.42375e-06	0.0021515960529497704
4.42400e-06	0.002158361614748977
4.42425e-06	0.002165127176548184
4.42450e-06	0.0021718927383474135
4.42475e-06	0.0021675930281624275
4.42500e-06	0.002156888847642597
4.42525e-06	0.0021461846671227314
4.42550e-06	0.002135480486602901
4.42575e-06	0.0021247763060830713
4.42600e-06	0.0021140721255632055
4.42625e-06	0.0021033679450433752
4.42650e-06	0.0020926637645235454
4.42675e-06	0.002081959584003679
4.42700e-06	0.0020686086616671013
4.42725e-06	0.002038063303169931
4.42750e-06	0.0020075179446728646
4.42775e-06	0.001976972586175798
4.42800e-06	0.0019464272276786278
4.42825e-06	0.001915881869181561
4.42850e-06	0.0018853365106844945
4.42875e-06	0.0018547911521873243
4.42900e-06	0.0018242457936902576
4.42925e-06	0.001793700435193191
4.42950e-06	0.0017573180863878122
4.42975e-06	0.0017175573451378434
4.43000e-06	0.0016777966038878749
4.43025e-06	0.0016380358626377715
4.43050e-06	0.001598275121387803
4.43075e-06	0.0015585143801378344
4.43100e-06	0.0015191612818590018
4.43125e-06	0.0014800441233131997
4.43150e-06	0.0014409269647672654
4.43175e-06	0.0014018098062214632
4.43200e-06	0.0013626926476756611
4.43225e-06	0.0013235754891297268
4.43250e-06	0.0012878258892015267
4.43275e-06	0.0012540253990010071
4.43300e-06	0.001220224908800373
4.43325e-06	0.00119053493940706
4.43350e-06	0.0011632240989319974
4.43375e-06	0.0011359132584568424
4.43400e-06	0.0011128884083803237
4.43425e-06	0.001092344247291559
4.43450e-06	0.001075451434132797
4.43475e-06	0.0010606719851579194
4.43500e-06	0.0010496694951715845
4.43525e-06	0.0010408530718112965
4.43550e-06	0.0010359297064190922
4.43575e-06	0.0010332596045976607
4.43600e-06	0.001034461398212008
4.43625e-06	0.001037904206732057
4.43650e-06	0.0010450273418414673
4.43675e-06	0.0010542806136968812
4.43700e-06	0.0010678254799664538
4.43725e-06	0.001083854278772679
4.43750e-06	0.0010998830775788494
4.43775e-06	0.0011205656180128885
4.43800e-06	0.0011439416982204943
4.43825e-06	0.001167317778428021
4.43850e-06	0.0011944989114388547
4.43875e-06	0.0012238823714987163
4.43900e-06	0.0012532658315584783
4.43925e-06	0.0012864027284891155
4.43950e-06	0.0013217120776759536
4.43975e-06	0.001357021426862672
4.44000e-06	0.0013923307760495102
4.44025e-06	0.0014276401252362287
4.44050e-06	0.0014629494744229472
4.44075e-06	0.0014993882416593953
4.44100e-06	0.0015364807049279834
4.44125e-06	0.0015735731681965712
4.44150e-06	0.001610665631465285
4.44175e-06	0.001647758094733873
4.44200e-06	0.001684850558002461
4.44225e-06	0.0017167365492014983
4.44250e-06	0.0017456090856968196
4.44275e-06	0.0017744816221921412
4.44300e-06	0.0018033541586875603
4.44325e-06	0.0018322266951828817
4.44350e-06	0.0018610992316782033
4.44375e-06	0.0018899717681736224
4.44400e-06	0.001916257821334232
4.44425e-06	0.001925740904795988
4.44450e-06	0.0019352239882577118
4.44475e-06	0.0019447070717194357
4.44500e-06	0.001954190155181192
4.44525e-06	0.0019636732386429157
4.44550e-06	0.0019731563221046396
4.44575e-06	0.0019826394055663956
4.44600e-06	0.001982070772847027
4.44625e-06	0.0019756843059018157
4.44650e-06	0.001969297838956583
4.44675e-06	0.0019575478375748745
4.44700e-06	0.0019426934753404013
4.44725e-06	0.0019278391131058777
4.44750e-06	0.0019057659394089222
4.44775e-06	0.0018795145888077969
