Time(s)	Current(A)
1.07500e-05	-0.0031213950022015973
1.07503e-05	-0.00308867174177905
1.07505e-05	-0.0030529573585002076
1.07508e-05	-0.0030151142298341822
1.07510e-05	-0.0029772711011679005
1.07513e-05	-0.002937791127458153
1.07515e-05	-0.0028971462312417377
1.07518e-05	-0.0028558709317048282
1.07520e-05	-0.002814146981870124
1.07523e-05	-0.0027722951694569994
1.07525e-05	-0.0027304511122557052
1.07528e-05	-0.0026889176911064168
1.07530e-05	-0.00264795387763988
1.07533e-05	-0.0026078455525603153
1.07535e-05	-0.0025688847172913414
1.07538e-05	-0.0025313526005102454
1.07540e-05	-0.0024955245624331645
1.07543e-05	-0.0024616758480985545
1.07545e-05	-0.002430081488086006
1.07548e-05	-0.0024011518385024296
1.07550e-05	-0.002375842106828848
1.07553e-05	-0.0023555635513660598
1.07555e-05	-0.002341276057764527
1.07558e-05	-0.002333160004275241
1.07560e-05	-0.002331100907817099
1.07563e-05	-0.0023349716820760215
1.07565e-05	-0.002344645298327225
1.07567e-05	-0.002361909781227217
1.07570e-05	-0.002382875132950423
1.07573e-05	-0.0024117448404696058
1.07575e-05	-0.002446239980895233
1.07578e-05	-0.0024884517639695704
1.07580e-05	-0.0025361553868099153
1.07582e-05	-0.0025890969545958693
1.07585e-05	-0.0026489627318901222
1.07588e-05	-0.0027141315347669927
1.07590e-05	-0.0027844910947539795
1.07593e-05	-0.002860107947023813
1.07595e-05	-0.0029408715393436716
1.07598e-05	-0.0030263654556434883
1.07600e-05	-0.003116057589572171
1.07603e-05	-0.0032094110728840644
1.07605e-05	-0.003305888958896914
1.07608e-05	-0.003404987569224025
1.07610e-05	-0.0035063370833422576
1.07613e-05	-0.0036096798672660465
1.07615e-05	-0.003714647456031365
1.07618e-05	-0.00382067959159555
1.07620e-05	-0.003927143647306057
1.07623e-05	-0.004033404131529012
1.07625e-05	-0.004138825649439328
1.07628e-05	-0.004242793345836756
1.07630e-05	-0.004344776355571409
1.07633e-05	-0.004444314676668741
1.07635e-05	-0.004540878179514189
1.07638e-05	-0.004633816905508912
1.07640e-05	-0.0047224358894528
1.07643e-05	-0.0048060380363981105
1.07645e-05	-0.004883926251397232
1.07648e-05	-0.00495542819587575
1.07650e-05	-0.0050200172846898835
1.07652e-05	-0.0050774194490232055
1.07655e-05	-0.005127510526913372
1.07658e-05	-0.005167936326304261
1.07660e-05	-0.005203659066298545
1.07663e-05	-0.005227951617220341
1.07665e-05	-0.00524410944300824
1.07667e-05	-0.005260267268796029
1.07670e-05	-0.005262530966415134
1.07673e-05	-0.005254906383717169
1.07675e-05	-0.005247281801019204
1.07678e-05	-0.005226686602564769
1.07680e-05	-0.005196860376230925
1.07683e-05	-0.005167034149897081
1.07685e-05	-0.0051271967824074
1.07688e-05	-0.005080234608751771
1.07690e-05	-0.005025980867510758
1.07693e-05	-0.0049665378072024655
1.07695e-05	-0.00490075997226426
1.07698e-05	-0.0048304737560499605
1.07700e-05	-0.00475483730706253
1.07703e-05	-0.0046753931631413935
1.07705e-05	-0.004591581015894141
1.07708e-05	-0.00450466021434458
1.07710e-05	-0.004414453616570451
1.07713e-05	-0.004321908557992199
1.07715e-05	-0.004227697477219225
1.07718e-05	-0.0041316243974907135
1.07720e-05	-0.004034717965065322
1.07723e-05	-0.00393753216000602
1.07725e-05	-0.0038406214121369875
1.07728e-05	-0.0037445438790484143
1.07730e-05	-0.003649879610776469
1.07733e-05	-0.0035572480915901624
1.07735e-05	-0.003467291436609142
1.07737e-05	-0.003380651923825737
1.07740e-05	-0.00329796865251003
1.07743e-05	-0.0032198805883836006
1.07745e-05	-0.0031470265402983207
1.07748e-05	-0.003079963587514214
1.07750e-05	-0.0030188704463409953
1.07752e-05	-0.002963468148137042
1.07755e-05	-0.0029134990352976285
1.07758e-05	-0.002869022722425421
1.07760e-05	-0.0028302396314842876
1.07763e-05	-0.0027991663548868795
1.07765e-05	-0.0027718699887168304
1.07768e-05	-0.002751850227489106
1.07770e-05	-0.002737009136601371
1.07773e-05	-0.0027303399607546287
1.07775e-05	-0.002729486636445635
1.07778e-05	-0.0027286333121366475
1.07780e-05	-0.0027354243337077214
1.07783e-05	-0.0027476557423261536
1.07785e-05	-0.002765812901345657
1.07788e-05	-0.0027881873441242605
1.07790e-05	-0.002814720245225985
1.07793e-05	-0.0028466351217964446
1.07795e-05	-0.002882484417852976
1.07798e-05	-0.0029219780592965668
1.07800e-05	-0.0029648809889309164
1.07803e-05	-0.0030109607841850095
1.07805e-05	-0.0030599850408588054
1.07808e-05	-0.0031117014376560574
1.07810e-05	-0.0031657643143175496
1.07813e-05	-0.0032217159384972296
1.07815e-05	-0.0032791038718664135
1.07818e-05	-0.003337553326354112
1.07820e-05	-0.003396724625370148
1.07822e-05	-0.003456279523578115
1.07825e-05	-0.0035158797572709894
1.07828e-05	-0.0035751746061199376
1.07830e-05	-0.0036337551060849327
1.07833e-05	-0.0036911420189081833
1.07835e-05	-0.0037468593264112634
1.07837e-05	-0.003800479847261731
1.07840e-05	-0.003851598186566053
1.07843e-05	-0.0038998099174958304
1.07845e-05	-0.003944711429366861
1.07848e-05	-0.003985902956912071
1.07850e-05	-0.0040230304498847565
1.07853e-05	-0.0040545428505243605
1.07855e-05	-0.004083301393136361
1.07858e-05	-0.004105381564446185
1.07860e-05	-0.004122708820946945
1.07863e-05	-0.004140036077447588
1.07865e-05	-0.004149026875185349
1.07868e-05	-0.004152084717638676
1.07870e-05	-0.004155142560091984
1.07873e-05	-0.004147277873253532
1.07875e-05	-0.00413163975650637
1.07878e-05	-0.004116001639759314
1.07880e-05	-0.004100363523012152
1.07883e-05	-0.00408472540626499
1.07885e-05	-0.004057142938720941
1.07888e-05	-0.004021059823456118
1.07890e-05	-0.003984976708191296
1.07893e-05	-0.003948893592926718
1.07895e-05	-0.003912810477661896
1.07898e-05	-0.0038691838057824295
1.07900e-05	-0.0038201884773365322
1.07903e-05	-0.003771193148890303
1.07905e-05	-0.0037182402922694173
1.07907e-05	-0.0036624709114668856
1.07910e-05	-0.003606701530663976
1.07913e-05	-0.0035487666021238487
1.07915e-05	-0.003489290479864158
1.07918e-05	-0.0034290045386019467
1.07920e-05	-0.0033681422591048597
1.07922e-05	-0.0033071814302058126
1.07925e-05	-0.003246356133225394
1.07928e-05	-0.003186087320279997
1.07930e-05	-0.003126730784860286
1.07933e-05	-0.003068659405422426
1.07935e-05	-0.0030122638265663096
1.07938e-05	-0.0029579420159249015
1.07940e-05	-0.0029079458222719995
1.07943e-05	-0.0028603654056472546
1.07945e-05	-0.00281278498902251
1.07948e-05	-0.002770091824748032
1.07950e-05	-0.002730876857929342
1.07953e-05	-0.0026944098030179916
1.07955e-05	-0.002659898403252416
1.07958e-05	-0.0026253870034866067
1.07960e-05	-0.002595103955718618
1.07963e-05	-0.0025678301741211885
1.07965e-05	-0.002540556392523574
1.07968e-05	-0.00251328261092596
1.07970e-05	-0.0024866401117520074
1.07973e-05	-0.002466862079896186
1.07975e-05	-0.002447084048040364
1.07978e-05	-0.0024273060161846766
1.07980e-05	-0.002407527984328855
1.07983e-05	-0.0023911836521468754
1.07985e-05	-0.0023772830418391172
1.07988e-05	-0.002363382431531265
1.07990e-05	-0.0023494818212234122
1.07992e-05	-0.002335948782495846
1.07995e-05	-0.0023264126602134997
1.07998e-05	-0.002316876537931154
1.08000e-05	-0.0023073404156488723
1.08003e-05	-0.002297804293366526
1.08005e-05	-0.0022907304455043382
1.08007e-05	-0.0022854089680975826
1.08010e-05	-0.0022800874906907915
1.08013e-05	-0.0022747660132840003
1.08015e-05	-0.002269444535877245
1.08018e-05	-0.0022641230584704536
1.08020e-05	-0.0022588015810636624
1.08023e-05	-0.002255118940479659
1.08025e-05	-0.0022526026399291472
1.08028e-05	-0.002250086339378618
1.08030e-05	-0.0022475700388280896
1.08033e-05	-0.0022450537382775774
1.08035e-05	-0.0022425374377270484
1.08038e-05	-0.0022400211371765197
1.08040e-05	-0.0022378683511029614
1.08043e-05	-0.0022360255548723
1.08045e-05	-0.00223427706494725
1.08048e-05	-0.0022328410857568736
1.08050e-05	-0.002232796743419647
1.08053e-05	-0.002236015709876202
1.08055e-05	-0.002243805914003175
1.08058e-05	-0.0022563580311793065
1.08060e-05	-0.0022734291010287505
1.08063e-05	-0.002295893057654675
1.08065e-05	-0.00232089010480332
1.08068e-05	-0.0023506065733315024
1.08070e-05	-0.002383681796076816
1.08073e-05	-0.002424684135966438
1.08075e-05	-0.0024713281077424066
1.08077e-05	-0.0025179720795180595
1.08080e-05	-0.0025707618432158873
1.08083e-05	-0.0026305798642458447
1.08085e-05	-0.0026946888818748446
1.08088e-05	-0.0027627379687689604
1.08090e-05	-0.0028347135205081253
1.08092e-05	-0.0029109129540764852
1.08095e-05	-0.0029914127060099837
1.08098e-05	-0.0030758504617169964
1.08100e-05	-0.003163694052309757
1.08103e-05	-0.003254404105994735
1.08105e-05	-0.003347441018145981
1.08108e-05	-0.003442316368386973
1.08110e-05	-0.003538753295351215
1.08113e-05	-0.0036366695801692637
1.08115e-05	-0.0037358446021375914
1.08118e-05	-0.003835782975324735
1.08120e-05	-0.003935882861840673
1.08123e-05	-0.004035537562616599
1.08125e-05	-0.004134141312380018
1.08128e-05	-0.004231119958548537
1.08130e-05	-0.004326031406290775
1.08133e-05	-0.004418556045923143
1.08135e-05	-0.0045082872922128266
1.08138e-05	-0.004594646738693615
1.08140e-05	-0.004676989282664993
1.08143e-05	-0.004754666995664194
1.08145e-05	-0.004827032142839996
1.08148e-05	-0.004893547712893439
1.08150e-05	-0.004954178529820299
1.08153e-05	-0.005008056045890029
1.08155e-05	-0.005058835943609307
1.08158e-05	-0.005103724913079543
1.08160e-05	-0.005144421381283803
1.08162e-05	-0.005177781856461811
1.08165e-05	-0.005205921395524865
1.08168e-05	-0.005232882985196472
1.08170e-05	-0.005247035735569262
1.08173e-05	-0.005261188485942149
1.08175e-05	-0.005269030864398283
1.08177e-05	-0.005272382228683026
1.08180e-05	-0.005268978186731313
1.08183e-05	-0.0052607664051500524
1.08185e-05	-0.005252554623568846
1.08188e-05	-0.005237777143917373
1.08190e-05	-0.00521832693760775
1.08193e-05	-0.005194584493353459
1.08195e-05	-0.005167787316083586
1.08198e-05	-0.005137363194349695
1.08200e-05	-0.005104357820797253
1.08203e-05	-0.0050681099066611805
1.08205e-05	-0.005029554316225318
1.08208e-05	-0.004988244103364603
1.08210e-05	-0.004944973459564399
1.08213e-05	-0.004899900497501649
1.08215e-05	-0.004853544847672738
1.08218e-05	-0.004806176226968757
1.08220e-05	-0.004758086687336556
1.08223e-05	-0.004709598053230288
1.08225e-05	-0.004660825388489937
1.08228e-05	-0.004612332253109922
1.08230e-05	-0.004564038055341949
1.08233e-05	-0.0045169922860279176
1.08235e-05	-0.0044708350079074
1.08238e-05	-0.0044267933113666435
1.08240e-05	-0.004384257248247162
1.08243e-05	-0.004344593876401261
1.08245e-05	-0.004306974963644818
1.08247e-05	-0.004274023035007446
1.08250e-05	-0.004244392541634767
1.08253e-05	-0.004214762048262088
1.08255e-05	-0.004191604575260373
1.08258e-05	-0.004173053871337465
1.08260e-05	-0.004154503167414558
1.08262e-05	-0.00414274668191449
1.08265e-05	-0.004135825558201204
1.08268e-05	-0.004128904434487918
1.08270e-05	-0.004130088846089564
1.08273e-05	-0.004137041867601011
1.08275e-05	-0.004143994889112459
1.08278e-05	-0.0041509479106239065
1.08280e-05	-0.0041664499737666845
1.08283e-05	-0.00418803628481648
1.08285e-05	-0.004209622595866276
1.08288e-05	-0.004231208906915926
1.08290e-05	-0.004257604415197146
1.08293e-05	-0.004289175919683615
1.08295e-05	-0.004323625373404617
1.08298e-05	-0.004360730405779807
1.08300e-05	-0.00440026187471194
1.08303e-05	-0.004441989973881712
1.08305e-05	-0.00448568482348334
1.08308e-05	-0.0045311170461151545
1.08310e-05	-0.004578055166425914
1.08313e-05	-0.004626252207274544
1.08315e-05	-0.004675434256651684
1.08318e-05	-0.004725309413469721
1.08320e-05	-0.004775580973054521
1.08323e-05	-0.004825951571456409
1.08325e-05	-0.004876124195208536
1.08328e-05	-0.004925802762167647
1.08330e-05	-0.004974688856935564
1.08332e-05	-0.005022474510636548
1.08335e-05	-0.005068835723351347
1.08338e-05	-0.00511343659147444
1.08340e-05	-0.005155938113588381
1.08343e-05	-0.005196001560324634
1.08345e-05	-0.005233288123878989
1.08347e-05	-0.0052674228924928426
1.08350e-05	-0.005297905283781029
1.08353e-05	-0.005324175435796231
1.08355e-05	-0.0053458740714900565
1.08358e-05	-0.005361527727881704
1.08360e-05	-0.005374259373138028
1.08363e-05	-0.005378677842414037
1.08365e-05	-0.005377179926468098
1.08368e-05	-0.005375682010522148
1.08370e-05	-0.005374184094576198
1.08373e-05	-0.0053612786602363115
1.08375e-05	-0.005340254635190905
1.08378e-05	-0.005319230610145499
1.08380e-05	-0.0052982065851002345
1.08383e-05	-0.005268001142756385
1.08385e-05	-0.005231261398510379
1.08388e-05	-0.005194521654264622
1.08390e-05	-0.005150897553012748
1.08393e-05	-0.005102373939450561
1.08395e-05	-0.0050538503258887035
1.08398e-05	-0.0049996289381865
1.08400e-05	-0.004941352514622939
1.08403e-05	-0.004883076091059774
1.08405e-05	-0.00482129940673692
1.08408e-05	-0.00475703162983043
1.08410e-05	-0.00469077055693875
1.08413e-05	-0.004623090879780156
1.08415e-05	-0.004554163862360323
1.08418e-05	-0.004484349128199896
1.08420e-05	-0.004414219226385206
1.08423e-05	-0.00434386502362296
1.08425e-05	-0.004274141428216803
1.08428e-05	-0.004204866628318536
1.08430e-05	-0.004137121690570522
1.08432e-05	-0.0040704655369218825
1.08435e-05	-0.004005530631218827
1.08438e-05	-0.0039433169807518865
1.08440e-05	-0.0038849452695355765
1.08443e-05	-0.003828549962352311
1.08445e-05	-0.0037767255383169816
1.08448e-05	-0.0037281541556677387
1.08450e-05	-0.0036846649024449623
1.08453e-05	-0.0036447925383039153
1.08455e-05	-0.003609912731771996
1.08458e-05	-0.0035785860671605114
1.08460e-05	-0.0035538659985056248
1.08463e-05	-0.003533847763035767
1.08465e-05	-0.0035138295275660447
1.08468e-05	-0.0035020719854744445
1.08470e-05	-0.0034961934773834447
1.08473e-05	-0.0034903149692924853
1.08475e-05	-0.003492038390252207
1.08478e-05	-0.0034991720107329194
1.08480e-05	-0.0035063056312135835
1.08483e-05	-0.003519381982422718
1.08485e-05	-0.0035366877020889596
1.08488e-05	-0.0035574019796540753
1.08490e-05	-0.0035826635166163546
1.08493e-05	-0.003611371287630193
1.08495e-05	-0.003643235847823948
1.08498e-05	-0.003678020439536251
1.08500e-05	-0.00371551406308825
1.08503e-05	-0.0037555070348763604
1.08505e-05	-0.0037977895744911896
1.08508e-05	-0.003842141971769103
1.08510e-05	-0.003888295146192721
1.08513e-05	-0.003935915768356617
1.08515e-05	-0.003984663349418321
1.08517e-05	-0.004034230273820945
1.08520e-05	-0.004084325272903683
1.08523e-05	-0.004134657423540089
1.08525e-05	-0.004184936309956129
1.08528e-05	-0.004234864945534712
1.08530e-05	-0.004284115543584322
1.08533e-05	-0.004332320081877292
1.08535e-05	-0.004379106009482186
1.08538e-05	-0.004424122043965615
1.08540e-05	-0.004467026117894333
1.08543e-05	-0.004507477058414059
1.08545e-05	-0.004545133923028247
1.08548e-05	-0.004579603420837474
1.08550e-05	-0.004610296676805048
1.08553e-05	-0.004636501873593962
1.08555e-05	-0.004657754667141347
1.08558e-05	-0.004672458351425812
1.08560e-05	-0.004684001396246279
1.08563e-05	-0.00468816355104881
1.08565e-05	-0.004687072817093509
1.08568e-05	-0.0046859820831382
1.08570e-05	-0.00467404400037506
1.08573e-05	-0.0046543859927161415
1.08575e-05	-0.0046347279850570905
1.08578e-05	-0.004615069977398039
1.08580e-05	-0.004583707578924396
1.08583e-05	-0.004544015309286215
1.08585e-05	-0.004504323039648034
1.08588e-05	-0.004464630770010122
1.08590e-05	-0.004416099251497138
1.08593e-05	-0.004361276948142398
1.08595e-05	-0.00430645464478803
1.08598e-05	-0.00424626360939821
1.08600e-05	-0.004182251713369095
1.08602e-05	-0.004114932121252459
1.08605e-05	-0.0040452584824616136
1.08608e-05	-0.003973095740133592
1.08610e-05	-0.003899161533395025
1.08613e-05	-0.003823440311096677
1.08615e-05	-0.0037464472917766063
1.08618e-05	-0.0036686915177658666
1.08620e-05	-0.0035902387853976787
1.08623e-05	-0.003511788862988379
1.08625e-05	-0.0034337975545039815
1.08628e-05	-0.0033567126593388873
1.08630e-05	-0.0032809517993433986
1.08633e-05	-0.0032069134812996213
1.08635e-05	-0.003135034458058457
1.08638e-05	-0.003065804896075348
1.08640e-05	-0.002999733608741966
1.08643e-05	-0.002937330204748453
1.08645e-05	-0.002879104311155519
1.08648e-05	-0.0028256012717531235
1.08650e-05	-0.0027774831233730365
1.08653e-05	-0.002735432963549728
1.08655e-05	-0.0026998789585733264
1.08658e-05	-0.002670959988874568
1.08660e-05	-0.0026487172188383134
1.08663e-05	-0.002635164495193178
1.08665e-05	-0.002625816228435185
1.08668e-05	-0.0026244907943847313
1.08670e-05	-0.0026288751118200703
1.08673e-05	-0.0026415338383874703
1.08675e-05	-0.002660081360291644
1.08678e-05	-0.0026846399196516495
1.08680e-05	-0.0027172835007934198
1.08683e-05	-0.0027562925593280717
1.08685e-05	-0.002801408381192915
1.08687e-05	-0.002852386341233916
1.08690e-05	-0.00290902748126275
1.08693e-05	-0.0029711412426404824
1.08695e-05	-0.003038437191189921
1.08698e-05	-0.0031105112106247783
1.08700e-05	-0.0031869207450065298
1.08703e-05	-0.0032672219223217466
1.08705e-05	-0.003350970967363048
1.08708e-05	-0.0034377326744380074
1.08710e-05	-0.0035271007887051286
1.08713e-05	-0.003618674164866048
1.08715e-05	-0.003710741153468253
1.08718e-05	-0.0037505747164289617
1.08720e-05	-0.003847199559834493
1.08723e-05	-0.008080382569077105
1.08725e-05	-0.013704728414574189
1.08728e-05	-0.005575461786405137
1.08730e-05	0.0025261776313399526
1.08733e-05	0.006812283749083014
1.08735e-05	0.008854601220233389
1.08738e-05	0.002916153809341974
1.08740e-05	-0.003028615247785071
1.08743e-05	-0.007590537315272209
1.08745e-05	-0.01034519494233978
1.08748e-05	-0.005311104124489062
1.08750e-05	-0.00027281737654851965
1.08753e-05	0.002381796349151376
1.08755e-05	0.003634647320995412
1.08758e-05	-0.00010827511404027431
1.08760e-05	-0.003851822771175661
1.08763e-05	-0.006726097866487326
1.08765e-05	-0.008465554830744399
1.08768e-05	-0.005323880038154684
1.08770e-05	-0.0021777204272804807
1.08772e-05	-0.0005229447111192118
1.08775e-05	0.0002554545835571061
1.08778e-05	-0.0020937805404541952
1.08780e-05	-0.004441701688492957
1.08783e-05	-0.006243570639157525
1.08785e-05	-0.007333240192069875
1.08788e-05	-0.0053643220833011875
1.08790e-05	-0.0033917994678079335
1.08793e-05	-0.0023527534103155797
1.08795e-05	-0.001861983699667538
1.08798e-05	-0.003329663291360332
1.08800e-05	-0.0047958311309451605
1.08803e-05	-0.0059193742286781795
1.08805e-05	-0.0065963436461828895
1.08808e-05	-0.005357159435246936
1.08810e-05	-0.004115630613828241
1.08813e-05	-0.003458797057257209
1.08815e-05	-0.0031454055485142535
1.08818e-05	-0.004058789876187235
1.08820e-05	-0.004971250710208776
1.08823e-05	-0.005669195844542447
1.08825e-05	-0.006087604164119436
1.08828e-05	-0.0053060681226110105
1.08830e-05	-0.004523515516383424
1.08833e-05	-0.0041077160010600106
1.08835e-05	-0.003907584825753114
1.08838e-05	-0.004476459153179681
1.08840e-05	-0.005045335260457105
1.08843e-05	-0.005480486243835132
1.08845e-05	-0.00574125330133918
1.08848e-05	-0.005251118052896314
1.08850e-05	-0.0047603410190288666
1.08853e-05	-0.004497649814644687
1.08855e-05	-0.004367311125543228
1.08857e-05	-0.004715807836969101
1.08860e-05	-0.0050615787375632455
1.08863e-05	-0.005321024069228498
1.08865e-05	-0.005468848068843279
1.08868e-05	-0.005144108434798476
1.08870e-05	-0.004816950889928773
1.08873e-05	-0.00463080554622002
1.08875e-05	-0.00452585621675659
1.08878e-05	-0.004719282436873327
1.08880e-05	-0.004909581851423017
1.08883e-05	-0.005044552155628721
1.08885e-05	-0.005108512633977864
1.08888e-05	-0.004875546686201809
1.08890e-05	-0.00464032712872407
1.08893e-05	-0.004492853140130163
1.08895e-05	-0.004395810203946823
1.08898e-05	-0.004485386898384355
1.08900e-05	-0.004572874393783969
1.08903e-05	-0.004625732750836106
1.08905e-05	-0.004634303322411399
1.08908e-05	-0.004457241682384894
1.08910e-05	-0.004279297452842059
1.08913e-05	-0.004157002976209875
1.08915e-05	-0.004067138230285734
1.08918e-05	-0.004095164173901142
1.08920e-05	-0.004123026442096211
1.08923e-05	-0.0041305026416191
1.08925e-05	-0.004111702314066214
1.08928e-05	-0.003978252631954531
1.08930e-05	-0.0038460442691892007
1.08933e-05	-0.003750645651260133
1.08935e-05	-0.003677667516339873
1.08938e-05	-0.003680796357369592
1.08940e-05	-0.0036862381473408267
1.08942e-05	-0.003681483796508036
1.08945e-05	-0.003663001866808871
1.08948e-05	-0.0035755509989097213
1.08950e-05	-0.0034913623973873713
1.08953e-05	-0.003431762950329472
1.08955e-05	-0.0033870144297190818
